520241,507,504,501
520245,507,484,515
520249,507,502,520
520253,507,530,507
520257,506,530,494
520261,505,501,499
520265,503,485,515
520269,503,509,516
520273,505,534,503
520278,505,525,494
520282,505,492,504
520286,506,483,518
520290,507,513,516
520294,508,532,503
520297,509,519,499
520300,507,492,511
520304,507,492,524
520308,507,520,518
520312,508,534,503
520316,509,512,503
520321,509,487,516
520325,510,497,525
520329,510,527,516
520333,509,532,500
520337,508,504,502
520341,507,485,518
520345,507,502,524
520349,505,529,509
520353,505,526,495
520356,506,497,501
520360,505,486,517
520365,504,508,520
520369,504,531,505
520373,504,521,496
520377,505,493,506
520381,506,485,519
520385,506,510,516
520389,506,530,503
520393,508,515,499
520397,508,488,512
520401,508,490,524
520406,506,522,518
520410,506,535,503
520413,507,511,501
520417,508,484,516
520421,507,493,527
520425,508,525,517
520429,508,532,502
520433,509,502,502
520437,508,480,515
520441,507,496,518
520445,508,526,507
520450,508,524,495
520454,509,494,500
520458,508,482,517
520462,508,507,518
520466,509,531,501
520469,508,520,493
520473,508,488,504
520477,508,483,519
520481,508,514,515
520485,509,535,499
520489,509,518,496
520494,510,488,509
520498,510,490,520
520502,509,522,514
520506,509,534,500
520510,509,512,499
520514,509,486,513
520518,508,497,523
520522,508,529,514
520525,509,531,498
520529,509,503,499
520534,508,482,511
520538,509,498,516
520542,509,530,505
520546,510,527,496
520550,510,496,501
520554,510,483,515
520558,509,509,516
520562,507,535,501
520566,507,526,493
520570,507,493,504
520574,506,489,518
520579,506,517,516
520582,506,533,500
520586,506,515,494
520590,507,489,507
520594,508,493,519
520598,509,523,513
520602,509,536,499
520606,508,511,497
520610,509,484,511
520614,510,496,520
520619,511,526,511
520623,508,532,498
520627,507,505,503
520631,507,486,518
520635,507,504,522
520638,507,531,508
520642,508,527,496
520646,508,498,501
520650,507,486,514
520654,507,509,514
520658,506,531,501
520663,506,521,494
520667,507,493,504
520671,508,489,518
520675,508,514,516
520679,507,530,501
520683,507,515,496
520687,508,489,510
520691,508,493,524
520694,507,522,519
520698,507,533,501
520702,508,511,500
520707,508,486,514
520711,508,496,524
520715,508,526,514
520719,508,532,500
520723,507,505,503
520727,508,483,518
520731,507,500,522
520735,507,530,511
520739,508,525,497
520743,508,492,502
520748,508,481,517
520751,509,506,518
520755,508,532,503
520759,509,521,494
520763,508,490,504
520767,507,487,519
520771,507,515,517
520775,507,534,504
520779,508,514,500
520783,508,483,513
520787,508,490,525
520792,508,519,516
520796,507,533,500
520800,506,511,499
520804,505,483,514
520807,505,501,525
520811,505,530,514
520815,506,532,501
520819,505,503,505
520823,506,484,519
520827,506,502,522
520832,506,534,509
520836,506,529,499
520840,506,495,504
520844,506,481,517
520848,507,510,519
520852,507,536,504
520856,507,524,494
520860,507,491,502
520863,507,482,518
520867,507,516,520
520871,507,538,506
520876,509,515,500
520880,509,482,510
520884,509,489,522
520888,509,523,520
520892,510,536,504
520896,510,519,496
520900,509,485,513
520904,509,493,529
520908,508,525,520
520912,508,530,504
520916,508,501,506
520920,507,479,517
520924,505,501,519
520928,504,531,508
520932,505,525,495
520936,505,493,502
520940,506,479,517
520944,506,504,516
520948,507,531,501
520952,507,518,493
520956,507,487,504
520961,506,483,517
520965,507,512,514
520969,507,534,499
520973,508,516,496
520976,509,486,509
520980,508,489,519
520984,509,521,514
520988,509,533,500
520992,509,507,498
520996,508,480,513
521000,507,493,523
521005,506,526,511
521009,506,532,500
521013,507,500,503
521017,508,481,515
521021,507,503,518
521025,506,531,506
521029,506,526,496
521032,507,496,503
521036,507,485,516
521040,507,510,516
521044,507,534,502
521049,508,519,495
521053,508,487,506
521057,508,483,519
521061,508,514,516
521065,508,535,502
521069,508,515,496
521073,509,485,509
521077,509,491,523
521081,509,522,515
521085,509,530,498
521089,509,508,498
521093,507,485,512
521097,506,497,520
521101,506,529,512
521105,507,532,498
521109,506,501,500
521113,506,483,515
521117,507,504,519
521121,507,532,504
521125,507,524,493
521129,508,493,501
521134,508,483,516
521138,508,509,517
521142,509,536,503
521145,509,524,495
521149,507,492,505
521153,506,489,517
521157,507,518,514
521161,509,536,500
521165,508,517,495
521169,507,489,509
521174,507,492,521
521178,507,524,515
521182,507,536,499
521186,508,512,500
521190,509,486,514
521194,508,496,522
521197,506,528,512
521201,506,531,499
521205,505,502,499
521209,505,484,516
521213,506,504,521
521218,507,532,508
521222,507,526,496
521226,506,494,504
521230,506,481,517
521234,507,508,518
521238,507,531,503
521242,507,518,494
521246,507,489,505
521250,506,487,518
521253,507,516,515
521257,507,535,501
521262,507,515,498
521266,506,486,511
521270,507,492,523
521274,507,523,517
521278,507,535,503
521282,506,507,502
521286,507,481,515
521290,508,496,523
521294,509,529,513
521298,508,532,499
521303,507,500,501
521307,507,482,517
521310,507,502,520
521314,507,529,507
521318,507,524,496
521322,507,493,503
521326,507,484,515
521330,506,509,515
521334,506,534,502
521338,507,521,495
521342,507,488,505
521347,506,487,519
521351,506,520,516
521355,508,537,500
521359,508,516,498
521363,508,487,513
521366,508,492,524
521370,509,524,516
521374,507,533,501
521378,507,509,500
521382,507,486,514
521387,508,498,522
521391,509,527,512
521395,509,529,499
521399,509,500,502
521403,508,483,515
521407,508,505,520
521411,507,534,506
521415,506,526,494
521419,507,495,502
521422,507,485,516
521426,509,510,516
521431,509,534,500
521435,508,520,494
521439,507,490,504
521443,506,485,517
521447,506,513,513
521451,507,534,499
521455,507,514,497
521459,507,483,510
521463,507,488,520
521467,507,518,514
521472,507,528,502
521476,507,504,501
521479,507,483,515
521483,507,496,522
521487,508,527,512
521491,508,528,498
521495,507,499,501
521499,508,483,516
521503,508,502,519
521507,508,527,506
521511,508,521,496
521516,506,492,503
521520,507,484,518
521524,506,510,517
521528,506,529,499
521532,506,514,491
521535,507,486,502
521539,506,483,516
521543,506,515,515
521547,506,534,501
521551,507,513,497
521555,505,486,511
521560,505,493,523
521564,506,524,516
521568,508,532,500
521572,508,507,500
521576,507,484,517
521580,507,499,526
521584,507,528,513
521588,509,528,499
521591,508,499,505
521595,508,483,518
521600,509,504,520
521604,508,532,505
521608,509,525,494
521612,508,491,500
521616,508,484,514
521620,507,515,515
521624,506,539,502
521628,506,520,496
521632,507,489,504
521636,507,487,517
521640,508,519,513
521645,506,536,499
521648,506,515,496
521652,507,487,509
521656,508,495,522
521660,507,526,514
521664,508,534,498
521668,508,507,499
521672,508,484,516
521676,508,501,525
521680,508,531,513
521684,509,532,499
521689,509,501,502
521693,507,485,514
521697,506,507,516
521701,507,535,503
521704,507,527,492
521708,506,495,501
521712,506,486,517
521716,507,512,517
521720,507,532,499
521724,508,519,492
521729,509,488,504
521733,508,488,519
521737,507,518,516
521741,508,534,501
521745,509,512,498
521749,509,483,512
521753,509,491,523
521757,509,523,516
521760,509,530,502
521764,508,503,502
521768,508,480,519
521773,507,497,525
521777,507,527,514
521781,506,530,501
521785,505,500,502
521789,505,483,515
521793,505,506,517
521797,506,535,504
521801,507,527,494
521805,507,494,501
521809,507,485,515
521814,507,514,515
521817,506,537,501
521821,506,522,495
521825,506,491,508
521829,505,490,521
521833,507,520,515
521837,508,536,498
521841,508,514,496
521845,508,486,510
521849,507,494,522
521853,507,527,516
521858,508,535,502
521862,510,506,501
521866,509,483,516
521870,507,498,522
521873,508,529,509
521877,508,529,497
521881,507,501,501
521885,508,485,516
521889,508,509,520
521893,508,537,505
521897,507,528,495
521902,507,497,503
521906,507,488,516
521910,508,513,513
521914,509,535,499
521918,508,521,494
521922,508,489,505
521926,509,487,517
521929,510,518,513
521933,511,534,499
521937,509,515,497
521942,508,488,512
521946,508,493,521
521950,509,524,514
521954,510,531,498
521958,510,506,499
521962,510,484,516
521966,509,502,524
521970,509,530,512
521974,508,531,498
521978,507,500,501
521982,507,483,516
521986,508,507,520
521990,507,533,507
521994,508,526,498
521998,508,493,505
522002,509,484,518
522006,510,512,516
522010,509,534,501
522014,507,519,494
522018,507,490,505
522022,508,490,519
522027,507,521,515
522031,506,538,500
522035,507,513,497
522039,508,483,511
522042,507,493,522
522046,508,525,513
522050,507,534,499
522054,508,506,500
522058,509,484,516
522062,509,500,523
522066,507,529,512
522071,507,527,499
522075,508,497,504
522079,507,480,518
522083,508,501,519
522087,507,530,507
522091,506,519,497
522095,507,489,505
522098,507,484,519
522102,507,509,515
522106,506,532,499
522110,507,517,494
522115,507,487,506
522119,506,486,518
522123,506,515,513
522127,506,531,499
522131,507,509,497
522135,508,482,512
522139,508,491,520
522143,507,524,513
522147,506,532,499
522151,505,504,500
522155,505,483,515
522159,506,498,521
522163,507,529,508
522167,507,529,495
522171,506,496,501
522175,505,481,517
522179,506,504,520
522183,506,531,506
522187,505,523,495
522191,505,492,502
522195,507,484,515
522200,508,512,513
522204,507,535,499
522208,506,520,493
522211,507,489,503
522215,507,488,515
522219,507,519,511
522223,508,534,498
522227,507,511,494
522231,508,483,508
522235,506,493,518
522240,505,525,511
522244,504,534,498
522248,506,506,499
522252,506,483,513
522256,507,499,519
522260,508,528,508
522264,509,526,493
522267,508,494,499
522271,508,483,515
522275,507,510,518
522279,506,536,504
522284,506,525,495
522288,506,495,503
522292,507,486,514
522296,506,511,512
522300,507,532,499
522304,505,517,494
522308,505,488,507
522312,507,489,520
522316,508,520,515
522320,509,534,501
522323,508,513,497
522328,507,485,510
522332,507,494,521
522336,507,526,514
522340,508,533,501
522344,507,505,501
522348,507,483,514
522352,508,498,520
522356,509,528,507
522360,509,527,496
522364,508,498,500
522369,508,484,515
522373,508,507,515
522377,508,534,501
522380,507,525,493
522384,507,492,502
522388,508,484,518
522392,508,512,516
522396,508,536,502
522400,507,521,496
522404,508,486,506
522408,507,489,517
522413,507,522,514
522417,506,537,499
522421,506,514,498
522425,506,487,514
522429,507,494,521
522433,507,525,511
522436,509,531,498
522440,508,504,498
522444,507,483,510
522448,507,502,517
522452,507,533,508
522457,507,532,497
522461,507,501,503
522465,507,485,518
522469,507,505,520
522473,507,532,507
522477,507,525,499
522481,508,495,509
522485,508,488,523
522489,509,513,521
522492,510,534,504
522497,510,518,497
522501,509,487,508
522505,507,488,520
522509,508,521,517
522513,508,534,502
522517,509,511,499
522521,508,485,513
522525,508,493,522
522529,509,527,513
522533,510,535,500
522537,510,508,501
522542,509,487,518
522546,509,504,526
522549,508,532,512
522553,507,527,498
522557,507,495,501
522561,509,481,515
522565,509,504,517
522569,508,534,504
522573,508,524,493
522577,508,489,501
522582,508,483,515
522586,508,513,514
522590,508,535,499
522594,509,518,493
522598,509,489,506
522602,508,490,518
522605,507,522,512
522609,508,536,498
522613,508,514,496
522617,509,486,512
522621,508,493,524
522626,506,527,513
522630,507,532,500
522634,507,505,503
522638,507,485,520
522642,507,501,525
522646,507,530,510
522650,509,528,498
522654,508,494,502
522658,507,481,518
522661,507,507,520
522665,507,534,506
522670,507,522,498
522674,508,489,505
522678,507,485,517
522682,507,514,517
522686,508,535,501
522690,509,518,493
522694,510,490,507
522698,509,490,519
522702,509,520,513
522706,509,533,498
522711,509,509,496
522715,508,483,512
522718,508,495,524
522722,509,528,515
522726,510,536,502
522730,511,510,503
522734,510,484,516
522738,510,500,521
522742,510,531,508
522746,508,529,496
522750,507,501,502
522755,507,487,517
522759,508,509,518
522763,508,536,505
522767,508,528,495
522771,506,496,503
522774,505,487,516
522778,504,515,516
522782,505,537,502
522786,505,518,496
522790,505,489,509
522795,505,491,521
522799,506,520,515
522803,507,535,502
522807,507,513,501
522811,507,487,515
522815,507,496,523
522819,507,527,514
522823,507,533,499
522827,508,504,501
522830,509,481,517
522834,508,499,525
522839,508,530,512
522843,507,526,499
522847,507,494,504
522851,507,483,520
522855,507,508,521
522859,507,535,505
522863,508,524,496
522867,509,490,504
522871,509,484,517
522875,508,514,515
522880,507,536,502
522884,506,517,497
522887,506,484,510
522891,506,486,522
522895,506,519,516
522899,505,533,502
522903,506,511,500
522907,506,488,515
522911,506,494,526
522915,506,526,513
522919,507,530,501
522924,507,506,503
522928,507,488,519
522932,507,498,525
522936,508,526,507
522940,507,527,496
522943,507,495,505
522947,507,481,518
522951,507,508,519
522955,508,536,507
522959,508,527,500
522963,508,491,510
522968,508,483,521
522972,507,513,516
522976,507,540,496
522980,507,518,489
522984,507,486,506
522988,508,489,522
522992,507,521,518
522996,507,536,505
522999,507,511,502
523003,507,485,517
523008,507,509,515
523012,508,558,497
523016,509,533,502
523020,510,497,509
523024,510,479,524
523028,508,496,529
523032,508,529,517
523036,508,534,504
523040,507,500,509
523044,507,485,521
523048,505,513,516
523053,507,536,499
523056,507,519,495
523060,506,489,509
523064,506,488,519
523068,506,518,523
523072,507,534,510
523076,506,512,503
523080,505,480,514
523084,505,495,517
523088,505,533,510
523092,506,538,503
523097,506,515,498
523101,506,481,518
523105,507,490,532
523109,507,523,527
523112,508,532,507
523116,509,499,510
523120,509,484,525
523124,508,508,546
523128,507,532,527
523132,507,528,501
523137,508,500,509
523141,507,482,526
523145,507,516,521
523149,508,537,503
523153,508,529,513
523157,508,502,521
523161,508,498,517
523165,507,509,517
523168,507,532,507
523172,506,518,498
523176,506,488,514
523181,506,494,536
523185,508,533,539
523189,508,556,531
523193,509,530,516
523197,510,505,540
523201,509,525,576
523205,510,550,569
523209,511,544,506
523213,510,520,520
523217,509,487,537
523222,509,483,516
523225,509,529,509
523229,508,538,518
523233,508,499,494
523237,508,482,523
523241,508,522,547
523245,508,570,542
523249,508,574,549
523253,509,496,527
523257,509,472,519
523261,508,518,525
523266,507,552,520
523270,508,513,491
523274,507,465,492
523278,507,478,525
523281,507,524,516
523285,508,530,500
523289,508,481,503
523293,509,496,535
523297,510,508,533
523301,510,515,488
523305,509,512,459
523310,507,530,529
523314,508,488,534
523318,508,470,500
523322,506,501,486
523326,506,520,488
523330,506,514,514
523334,505,475,500
523337,505,503,524
523341,505,513,510
523345,506,518,474
523350,507,542,508
523354,507,527,563
523358,506,497,525
523362,505,497,481
523366,506,481,463
523370,506,485,491
523374,506,480,504
523378,506,506,477
523382,506,545,495
523386,506,506,507
523390,508,507,516
523394,509,501,522
523398,508,512,489
523402,508,513,460
523406,507,499,488
523410,507,474,476
523414,506,491,506
523418,507,532,524
523422,508,546,516
523426,507,581,655
523430,505,486,550
523435,505,459,469
523439,507,507,464
523443,506,538,487
523447,506,476,454
523450,506,452,489
523454,505,490,501
523458,505,517,497
523462,505,495,483
523466,506,480,501
523470,507,472,513
523474,506,542,530
523479,507,523,488
523483,507,488,468
523487,507,494,513
523491,507,561,553
523495,507,617,542
523499,507,528,540
523503,508,484,532
523506,508,458,494
523510,508,489,524
523514,509,511,507
523518,509,499,487
523523,508,473,470
523527,506,493,501
523531,507,505,545
523535,506,499,481
523539,506,582,544
523543,507,557,571
523547,508,451,500
523551,508,488,465
523555,507,518,467
523559,506,520,493
523563,506,554,529
523567,507,580,555
523571,507,545,571
523575,508,493,488
523579,508,468,456
523583,508,443,478
523587,508,449,478
523591,508,497,479
523595,508,559,543
523599,508,579,598
523603,508,498,544
523608,509,479,545
523612,508,495,457
523616,508,522,460
523619,507,508,493
523623,506,521,504
523627,506,542,530
523631,505,543,538
523635,506,510,484
523639,505,461,469
523643,505,437,470
523648,506,485,498
523652,506,556,513
523656,505,525,501
523660,505,523,548
523664,506,501,525
523668,507,516,504
523672,507,532,527
523675,507,489,509
523679,506,446,454
523683,506,478,467
523687,507,524,510
523692,508,532,511
523696,509,501,522
523700,508,505,514
523704,507,538,536
523708,508,513,491
523712,508,522,494
523716,507,501,524
523720,507,465,500
523724,508,518,534
523728,508,585,541
523731,508,511,472
523736,509,459,481
523740,507,467,517
523744,507,509,514
523748,508,525,497
523752,506,492,524
523756,507,463,508
523760,508,573,510
523764,508,525,485
523768,508,506,497
523772,508,527,567
523777,506,504,537
523781,506,449,480
523785,508,479,464
523788,508,529,535
523792,508,503,508
523796,508,528,542
523800,509,522,524
523804,509,507,458
523808,509,488,468
523812,507,481,494
523816,507,487,536
523821,506,498,510
523825,506,539,476
523829,507,545,530
523833,508,527,608
523837,509,471,517
523841,509,454,444
523844,509,481,439
523848,508,496,463
523852,507,522,509
523856,508,529,540
523860,508,571,580
523865,510,611,586
523869,509,626,583
523873,508,470,481
523877,509,448,474
523881,509,543,494
523885,510,571,532
523889,510,448,479
523893,510,435,485
523897,509,513,523
523900,509,555,566
523905,509,533,569
523909,508,469,493
523913,507,424,445
523917,508,548,543
523921,508,549,505
523925,508,480,457
523929,507,498,470
523933,506,478,477
523937,507,487,463
523941,508,502,473
523945,508,483,499
523950,508,440,504
523953,508,458,503
523956,509,580,554
523960,510,663,638
523964,509,469,467
523968,509,399,441
523972,509,437,484
523976,509,516,496
523980,508,497,474
523984,508,468,473
523988,507,474,494
523993,507,505,489
523997,506,600,528
524001,505,591,533
524005,506,499,519
524008,505,440,547
524011,504,453,477
524015,504,493,473
524019,504,504,486
524023,505,484,493
524027,507,513,528
524032,507,499,480
524036,507,517,472
524040,507,521,511
524044,507,549,581
524048,508,518,547
524052,508,494,493
524056,508,479,444
524060,508,500,487
524063,509,496,499
524066,510,493,509
524070,510,554,508
524075,511,557,515
524079,511,476,517
524083,510,490,541
524087,509,529,594
524091,510,517,489
524095,510,490,443
524099,509,455,469
524103,508,485,510
524107,508,485,475
524111,508,526,477
524115,508,511,481
524119,509,478,491
524122,509,477,518
524126,508,530,524
524130,508,529,489
524134,509,535,500
524138,508,501,506
524142,508,550,551
524146,508,500,500
524150,508,493,459
524154,508,486,498
524158,507,529,560
524163,506,479,519
524167,506,487,471
524171,507,498,455
524174,508,491,522
524177,508,516,525
524181,508,484,475
524185,509,510,496
524189,508,506,471
524193,507,507,492
524197,507,531,528
524201,508,528,534
524206,508,582,556
524210,506,504,510
524214,506,455,464
524218,507,445,476
524222,507,493,502
524226,506,586,510
524229,507,534,516
524233,507,455,513
524237,507,457,536
524241,508,509,528
524246,508,505,483
524250,508,471,455
524254,508,468,480
524258,507,515,520
524262,507,578,561
524266,507,506,485
524270,506,493,489
524274,508,480,503
524278,509,521,508
524282,509,544,484
524285,510,548,510
524290,509,466,509
524294,507,476,517
524298,507,531,534
524302,508,600,600
524306,508,544,515
524310,506,456,476
524314,506,440,492
524318,507,497,544
524322,508,549,517
524326,508,491,443
524331,507,482,473
524335,507,483,502
524339,508,529,507
524342,509,559,483
524346,510,539,505
524350,509,484,508
524354,508,556,562
524358,509,520,519
524362,508,513,487
524366,506,468,471
524370,507,499,562
524375,508,526,558
524379,507,560,493
524383,507,503,464
524387,507,442,459
524391,508,456,509
524395,507,499,548
524398,505,563,516
524402,506,586,515
524406,506,473,481
524410,506,455,472
524414,507,496,487
524419,508,502,456
524423,508,513,471
524427,508,505,517
524431,508,541,585
524435,509,546,541
524439,508,546,488
524443,508,495,509
524447,509,467,487
524451,508,492,503
524454,506,512,496
524459,506,515,495
524463,506,517,559
524467,507,505,517
524471,507,475,488
524475,507,499,458
524479,508,509,483
524483,508,488,520
524487,508,494,523
524491,508,522,502
524495,508,526,481
524499,508,496,471
524504,507,490,492
524508,506,525,552
524511,506,508,506
524515,506,516,478
524519,505,506,481
524523,504,468,491
524527,506,472,501
524531,507,503,504
524535,507,524,495
524539,507,548,528
524544,506,518,558
524548,505,471,511
524552,506,503,468
524556,506,536,494
524560,506,517,489
524564,506,574,525
524567,506,504,530
524571,507,492,501
524575,507,489,489
524579,508,469,485
524583,508,498,519
524588,508,528,516
524592,508,534,500
524596,508,496,484
524600,508,498,513
524604,507,487,513
524608,506,537,509
524612,506,537,510
524616,507,484,481
524620,506,460,504
524623,507,494,531
524627,508,549,548
524632,509,602,571
524636,510,489,509
524640,509,441,476
524644,509,467,475
524648,509,511,471
524652,510,575,507
524656,509,681,635
524660,510,522,541
524664,508,437,475
524668,508,463,470
524673,508,501,494
524677,508,519,528
524680,508,481,503
524684,509,488,480
524688,508,511,489
524692,508,511,504
524696,508,524,556
524700,509,500,548
524704,507,498,477
524708,506,510,455
524712,507,498,474
524717,507,542,574
524721,507,543,575
524725,508,493,483
524729,508,506,480
524733,507,503,507
524736,507,559,519
524740,506,526,557
524744,505,496,493
524748,507,505,471
524752,507,476,483
524756,508,473,510
524761,510,513,551
524765,511,498,502
524769,510,500,473
524773,509,494,495
524777,509,491,541
524781,509,535,543
524785,508,591,574
524789,508,512,489
524792,507,468,457
524796,507,464,479
524801,507,512,478
524805,507,602,538
524809,506,586,548
524813,506,475,493
524817,507,446,485
524821,510,503,505
524825,510,502,484
524829,508,492,498
524833,507,480,521
524837,507,490,508
524841,507,532,531
524846,507,533,502
524849,508,510,497
524853,507,485,516
524857,507,498,513
524861,506,550,516
524865,507,578,588
524869,506,535,556
524873,506,482,484
524877,506,479,469
524881,506,496,460
524886,506,490,471
524890,507,498,515
524894,505,513,533
524898,505,522,521
524902,507,534,506
524905,507,572,577
524909,507,589,571
524913,507,464,495
524917,508,452,464
524921,507,483,469
524925,507,525,542
524930,508,513,565
524934,508,544,552
524938,509,488,491
524942,508,484,459
524946,507,467,502
524950,508,451,501
524954,508,496,503
524958,508,531,477
524961,507,551,516
524965,506,513,510
524969,506,520,543
524974,506,493,502
524978,507,512,470
524982,508,506,472
524986,508,516,512
524990,508,494,540
524994,507,524,534
524998,506,539,512
525002,507,488,486
525006,507,455,482
525010,507,471,491
525015,507,523,517
525018,507,534,486
525022,507,546,505
525026,506,471,513
525030,507,475,506
525034,507,524,492
525038,509,544,512
525042,507,516,531
525046,507,532,548
525050,506,531,522
525054,506,512,491
525059,506,539,504
525063,507,506,523
525067,507,484,529
525071,508,504,503
525074,508,515,510
525078,509,516,496
525082,508,478,493
525086,506,506,531
525090,507,513,524
525094,507,511,492
525099,507,496,492
525103,508,487,512
525107,507,557,555
525111,507,546,540
525115,506,495,455
525119,506,482,462
525123,507,479,506
525127,509,513,549
525130,509,629,567
525134,508,616,533
525138,507,453,484
525143,506,433,508
525147,507,506,536
525151,508,522,491
525155,508,480,462
525159,508,463,484
525163,507,492,544
525167,507,504,552
525171,507,572,509
525175,507,610,557
525179,506,509,530
525184,506,434,479
525187,507,467,465
525191,507,499,475
525195,508,521,521
525199,508,513,519
525203,509,486,517
525207,509,537,493
525211,508,607,561
525215,507,530,534
525219,507,460,484
525223,507,464,492
525228,507,527,498
525232,507,652,576
525236,506,571,558
525240,506,432,510
525243,507,421,471
525247,508,468,468
525251,508,488,472
525255,507,491,518
525259,507,477,539
525263,507,499,526
525267,506,523,471
525272,504,523,470
525276,503,559,533
525280,504,521,547
525284,504,479,489
525288,505,502,479
525292,506,497,487
525296,507,562,566
525299,507,607,571
525303,508,485,475
525307,506,491,464
525312,506,465,465
525316,507,462,486
525320,508,499,526
525324,507,568,552
525328,509,531,517
525332,508,469,483
525336,507,462,493
525340,506,500,518
525344,507,552,537
525348,506,542,535
525352,506,485,504
525356,507,514,510
525360,506,549,511
525364,507,570,525
525368,507,483,475
525372,507,448,488
525376,506,469,507
525380,506,514,510
525384,506,623,578
525388,506,574,559
525392,507,457,474
525396,507,439,471
525401,507,488,480
525405,507,512,485
525409,507,558,537
525412,507,521,559
525416,509,473,530
525420,509,530,531
525424,509,535,477
525428,510,468,473
525432,509,466,511
525436,509,537,541
525441,508,546,508
525445,509,532,500
525449,508,491,490
525453,508,496,510
525457,508,508,522
525461,507,564,522
525465,507,507,504
525468,508,461,502
525472,508,468,521
525476,507,507,511
525480,507,566,522
525485,507,539,523
525489,508,494,541
525493,508,505,538
525497,508,500,468
525501,507,535,484
525505,506,482,472
525509,507,459,498
525513,507,506,534
525517,507,555,520
525521,508,532,500
525524,508,492,489
525529,509,519,567
525533,510,485,510
525537,510,511,466
525541,510,504,479
525545,510,516,559
525549,510,495,564
525553,509,506,502
525557,508,530,512
525561,508,533,517
525565,508,469,473
525570,507,508,510
525574,505,582,554
525578,506,550,511
525581,507,459,454
525585,507,443,490
525589,508,471,544
525593,509,512,478
525597,509,512,453
525601,508,500,483
525605,508,490,514
525609,507,508,506
525614,508,597,582
525618,509,606,546
525622,509,504,496
525626,508,442,480
525630,509,505,521
525634,508,520,496
525637,507,504,481
525641,506,510,546
525645,506,482,509
525649,505,509,511
525654,505,523,483
525658,506,512,483
525662,506,486,503
525666,505,483,521
525670,505,537,530
525674,506,580,525
525678,505,510,497
525682,506,477,493
525686,507,505,519
525690,508,523,495
525693,507,532,490
525698,508,516,496
525702,508,518,549
525706,508,542,547
525710,509,526,510
525714,509,529,502
525718,507,463,467
525722,508,475,517
525726,508,551,531
525730,507,565,526
525734,508,489,478
525739,509,457,477
525743,509,493,545
525747,508,527,535
525750,508,504,478
525754,508,495,507
525758,507,503,528
525762,506,498,520
525766,508,522,523
525770,507,553,496
525774,506,533,494
525778,506,551,540
525783,507,509,498
525787,506,473,485
525791,506,498,493
525795,507,503,518
525799,507,524,571
525803,507,476,496
525806,507,493,474
525810,508,489,466
525814,508,488,499
525818,509,492,570
525822,510,544,660
525827,510,530,497
525831,509,489,422
525835,509,483,447
525839,509,530,526
525843,508,539,538
525847,508,586,515
525851,507,496,474
525855,507,456,478
525859,506,500,519
525862,507,551,528
525867,506,541,497
525871,506,480,464
525875,506,517,526
525879,506,541,636
525883,506,646,631
525887,508,612,534
525891,508,424,454
525895,507,380,449
525899,508,432,496
525903,509,489,497
525907,510,513,471
525912,509,487,477
525916,508,483,483
525919,509,506,510
525923,509,543,503
525927,510,549,522
525931,509,495,548
525935,508,467,484
525939,508,507,491
525943,507,558,539
525947,506,484,472
525952,507,451,469
525956,506,478,511
525960,505,572,536
525964,507,632,559
525968,507,578,559
525972,508,452,515
525975,509,428,464
525979,507,477,471
525983,506,487,463
525987,507,497,498
525991,506,488,551
525996,507,497,506
526000,508,507,467
526004,509,548,492
526008,509,525,524
526012,508,496,526
526016,507,484,505
526020,508,510,491
526024,506,533,494
526028,506,544,571
526031,507,489,554
526035,508,523,484
526040,507,536,518
526044,506,516,493
526048,506,565,524
526052,505,474,513
526056,506,448,479
526060,505,469,480
526064,506,485,484
526068,506,481,484
526072,506,516,504
526076,507,515,487
526081,508,594,555
526085,508,519,534
526088,508,444,490
526092,507,494,519
526096,507,573,516
526100,507,570,540
526104,507,536,529
526108,508,483,521
526112,510,539,542
526116,510,497,492
526120,511,503,483
526125,509,463,495
526129,508,472,502
526133,508,483,504
526137,508,513,482
526141,507,533,526
526144,507,483,494
526148,506,572,549
526152,507,552,521
526156,507,534,480
526160,507,481,465
526164,506,429,468
526169,507,461,490
526173,508,518,494
526177,508,575,540
526181,508,627,619
526185,508,472,502
526189,507,495,504
526193,507,521,530
526197,507,626,587
526200,507,491,492
526204,507,416,498
526209,508,455,509
526213,507,496,463
526217,507,519,477
526221,507,472,490
526225,506,471,514
526229,507,496,495
526233,507,578,513
526237,507,520,494
526241,508,459,469
526245,507,556,541
526249,505,574,572
526254,505,562,551
526257,505,442,501
526261,505,413,453
526265,506,473,497
526269,507,547,509
526273,508,594,535
526277,507,484,474
526281,507,405,455
526285,508,454,496
526289,508,507,495
526294,508,567,505
526298,508,513,546
526302,508,437,515
526306,508,473,455
526310,508,544,477
526313,509,579,511
526317,508,625,623
526321,508,466,520
526325,508,437,452
526329,509,497,452
526333,508,558,525
526338,506,476,519
526342,506,442,486
526346,507,498,493
526350,508,595,553
526354,507,593,585
526358,507,443,465
526362,507,410,452
526366,507,503,519
526369,508,587,601
526373,508,468,479
526377,508,437,427
526382,509,542,490
526386,508,543,524
526390,507,529,514
526394,506,467,472
526398,506,478,482
526402,507,595,534
526406,507,655,586
526410,506,481,493
526414,507,418,483
526418,507,444,518
526423,508,548,558
526426,509,560,549
526430,509,492,501
526434,508,445,467
526438,507,526,541
526442,507,511,532
526446,508,451,447
526450,507,458,426
526454,507,481,457
526458,507,534,524
526462,508,521,540
526467,509,517,469
526471,509,575,532
526475,509,464,494
526479,508,497,512
526482,508,552,535
526486,508,563,516
526490,508,560,562
526494,507,463,537
526498,507,491,515
526502,507,542,542
526507,507,474,463
526511,508,440,451
526515,509,484,521
526519,509,517,544
526523,508,523,453
526527,508,492,436
526531,509,480,488
526535,508,480,496
526538,508,549,504
526542,506,701,568
526546,507,558,532
526551,508,410,475
526555,509,423,479
526559,509,495,495
526563,510,547,527
526567,510,504,512
526571,508,471,501
526575,508,554,601
526579,508,553,583
526583,508,485,448
526587,508,464,459
526592,509,463,487
526595,508,509,528
526599,507,597,562
526603,507,518,483
526607,508,484,485
526611,508,465,488
526615,508,509,500
526619,509,529,476
526623,509,543,477
526627,508,519,523
526631,509,481,531
526636,508,633,565
526640,508,598,549
526644,508,443,484
526648,508,413,503
526651,509,452,534
526655,509,530,528
526659,508,510,493
526663,509,486,491
526667,509,457,526
526671,509,474,497
526675,509,532,496
526680,509,538,553
526684,509,510,487
526688,509,523,509
526692,509,501,487
526696,509,526,487
526700,509,567,506
526704,509,534,519
526707,508,440,492
526711,509,477,485
526715,509,557,525
526720,508,520,498
526724,507,454,515
526728,507,461,582
526732,506,496,510
526736,506,515,450
526740,506,497,470
526744,506,472,478
526748,506,488,482
526752,505,528,492
526756,506,535,482
526760,507,536,535
526764,507,515,533
526768,507,585,567
526772,507,557,549
526776,507,488,472
526780,507,475,509
526784,506,465,516
526788,505,529,566
526792,505,573,543
526796,506,508,519
526800,506,442,467
526804,505,431,471
526809,505,487,482
526813,505,559,524
526817,505,563,584
526820,505,515,510
526824,506,446,456
526828,506,472,462
526832,505,502,486
526836,506,532,504
526840,507,473,484
526844,509,479,497
526849,510,520,502
526853,509,582,544
526857,508,579,574
526861,508,487,532
526865,507,455,483
526869,508,534,494
526873,508,585,552
526876,507,504,552
526880,508,458,527
526884,509,460,496
526888,510,527,488
526893,509,537,489
526897,509,469,509
526901,508,475,575
526905,508,478,481
526909,508,509,445
526913,508,506,476
526917,508,512,496
526921,507,527,518
526925,507,512,499
526929,506,522,487
526932,506,487,486
526937,506,511,526
526941,507,547,561
526945,508,540,539
526949,508,502,488
526953,508,476,488
526957,507,467,531
526961,508,507,532
526965,508,605,565
526969,508,556,504
526973,508,440,525
526978,508,435,466
526982,509,485,470
526985,509,568,511
526988,509,558,513
526992,508,461,481
526996,508,487,530
527000,509,505,504
527004,509,517,489
527008,509,500,479
527012,508,478,492
527016,508,508,538
527021,508,554,540
527025,507,575,550
527029,508,485,471
527033,508,457,495
527037,509,470,527
527040,510,552,564
527043,510,521,494
527047,510,480,454
527051,508,454,473
527055,507,480,550
527059,508,518,493
527064,508,539,478
527068,508,526,501
527072,508,503,524
527076,508,532,543
527080,508,524,479
527084,508,513,480
527088,506,478,495
527092,507,563,541
527095,508,545,531
527098,507,487,485
527102,507,464,466
527107,507,461,492
527111,508,531,626
527115,508,520,518
527119,507,494,438
527123,506,481,453
527127,507,489,519
527131,508,525,556
527135,508,515,491
527139,509,539,492
527143,509,505,519
527148,508,498,535
527151,509,555,539
527154,508,558,518
527158,509,511,507
527162,509,467,491
527166,508,443,480
527170,507,488,498
527174,506,525,488
527178,506,598,550
527182,505,560,602
527186,507,445,503
527191,507,469,473
527195,506,512,479
527199,506,504,494
527203,507,477,511
527206,508,483,560
527209,508,518,509
527213,508,545,476
527217,508,521,492
527221,508,504,519
527225,508,541,554
527229,508,536,506
527234,509,521,485
527238,509,483,470
527242,509,469,493
527246,510,558,554
527250,508,555,556
527254,508,480,481
527258,508,504,577
527261,508,525,561
527264,509,494,485
527268,508,510,491
527272,507,486,497
527277,506,460,478
527281,507,480,513
527285,507,570,560
527289,506,553,504
527293,506,518,472
527297,506,481,499
527301,506,485,518
527305,505,499,490
527309,505,513,471
527313,503,564,513
527316,504,567,583
527321,505,504,534
527325,506,505,529
527329,507,484,460
527333,506,455,460
527337,506,465,520
527341,507,531,542
527345,507,567,519
527349,507,512,516
527353,507,489,512
527357,507,506,545
527362,508,524,523
527366,507,515,513
527370,508,473,477
527373,507,504,461
527377,507,558,528
527381,507,567,515
527385,507,547,504
527389,507,457,459
527393,506,513,534
527397,506,560,561
527401,505,503,501
527406,506,476,470
527410,506,448,462
527414,505,444,496
527418,506,483,580
527422,506,507,503
527426,507,523,464
527429,505,495,496
527433,506,473,518
527437,506,562,555
527441,507,602,542
527446,508,526,475
527450,508,449,468
527454,508,434,478
527458,507,476,490
527462,508,525,494
527466,508,593,529
527470,509,533,550
527474,509,452,507
527478,509,468,485
527482,509,500,476
527485,508,498,477
527490,507,480,499
527494,507,496,541
527498,506,524,524
527502,505,556,526
527506,505,516,531
527510,505,466,485
527514,505,484,485
527518,507,520,485
527522,508,523,478
527526,508,504,476
527531,507,531,513
527535,507,562,571
527539,507,531,525
527542,507,498,479
527546,507,468,493
527550,507,469,504
527554,507,509,499
527558,508,545,509
527562,507,535,526
527566,507,482,556
527570,506,471,506
527575,506,509,492
527579,506,532,481
527583,505,509,486
527587,506,485,501
527591,507,494,511
527595,507,536,512
527598,507,566,497
527602,507,511,495
527606,507,472,505
527610,508,499,507
527614,507,529,498
527619,507,536,496
527623,508,559,525
527627,508,505,521
527631,509,480,509
527635,509,507,491
527639,508,508,480
527643,507,486,497
527647,507,480,514
527651,508,510,515
527654,509,537,507
527659,508,532,518
527663,507,491,505
527667,507,487,513
527671,508,520,518
527675,509,531,485
527679,508,512,476
527683,507,491,494
527687,506,503,523
527691,507,546,522
527695,508,548,485
527699,508,502,480
527704,507,466,502
527708,507,486,510
527711,509,522,496
527715,510,527,482
527719,510,510,485
527723,509,495,503
527727,508,513,519
527731,507,541,503
527735,507,525,502
527739,507,487,511
527744,507,479,525
527748,509,504,536
527752,509,530,496
527756,509,519,490
527760,509,486,503
527764,509,483,515
527767,509,518,512
527771,508,545,515
527775,508,525,502
527779,507,484,499
527783,508,483,508
527788,510,516,500
527792,510,527,487
527796,508,507,495
527800,508,489,513
527804,509,510,514
527808,508,536,497
527812,508,538,490
527816,508,498,505
527820,508,476,520
527823,507,499,522
527827,507,530,509
527832,507,525,500
527836,507,492,508
527840,509,482,521
527844,510,508,522
527848,511,531,504
527852,510,515,493
527856,509,485,503
527860,508,478,519
527864,508,522,517
527868,508,542,498
527873,508,510,500
527877,506,486,509
527880,506,493,523
527884,508,518,509
527888,509,534,486
527892,508,502,494
527896,508,476,498
527900,507,498,528
527904,507,531,519
527908,506,532,505
527912,506,500,508
527917,507,486,522
527921,506,508,527
527925,507,534,511
527929,509,527,494
527933,510,491,498
527936,509,478,517
527940,510,513,523
527944,509,545,511
527948,508,525,506
527952,507,495,515
527956,506,494,525
527961,507,517,518
527965,506,533,505
527969,505,511,501
527973,504,488,512
527977,505,492,522
527981,506,530,513
527985,507,540,502
527989,507,503,500
527992,506,476,516
527996,506,494,526
528001,508,530,515
528005,509,530,500
528009,508,495,503
528013,508,476,519
528017,508,501,525
528021,508,533,513
528025,510,524,503
528029,509,490,508
528033,509,479,524
528037,508,509,525
528041,509,537,509
528046,509,517,504
528049,508,479,515
528053,508,479,524
528057,508,516,520
528061,508,523,500
528065,508,503,498
528069,508,474,509
528073,505,482,522
528077,506,520,515
528081,506,533,507
528086,507,501,508
528090,507,472,518
528094,507,493,523
528098,507,529,513
528102,508,528,500
528105,508,497,502
528109,508,477,520
528113,507,501,528
528117,508,529,509
528121,509,530,505
528125,509,503,507
528130,509,492,521
528134,508,511,525
528138,509,539,513
528142,509,526,507
528146,508,485,501
528150,507,485,518
528154,508,524,526
528158,507,547,509
528161,507,521,502
528165,506,491,519
528169,506,499,530
528174,505,533,521
528178,505,544,505
528182,506,513,504
528186,507,487,517
528190,507,504,526
528194,508,538,517
528198,508,536,503
528202,508,507,505
528206,508,492,522
528210,506,510,530
528215,507,540,516
528218,507,532,504
528222,507,501,510
528226,507,499,523
528230,507,519,526
528234,505,542,514
528238,507,528,506
528242,507,492,513
528246,508,488,522
528250,508,521,517
528254,508,542,507
528259,508,516,503
528263,507,486,516
528267,507,495,524
528271,506,529,515
528274,506,537,500
528278,506,508,499
528282,507,480,513
528286,507,496,521
528290,507,531,512
528294,507,533,501
528299,507,500,506
528303,507,482,519
528307,507,507,524
528311,507,538,512
528315,508,529,504
528319,508,497,513
528323,508,488,526
528327,507,514,524
528330,506,538,510
528334,506,522,501
528338,505,491,512
528343,506,489,525
528347,507,520,520
528351,506,538,506
528355,506,514,501
528359,508,485,511
528363,506,495,521
528367,506,530,514
528371,506,540,502
528375,506,513,499
528379,506,484,515
528384,507,499,522
528387,509,534,514
528391,509,536,502
528395,507,501,505
528399,506,482,519
528403,506,507,525
528407,506,538,512
528411,508,530,503
528415,507,495,511
528419,506,485,525
528423,507,514,524
528428,507,541,506
528432,507,523,499
528436,508,486,510
528440,508,488,524
528443,508,522,519
528447,509,540,503
528451,509,516,497
528455,507,486,509
528459,507,497,521
528463,508,531,514
528467,508,538,497
528472,508,507,497
528476,508,485,514
528480,509,504,521
528484,509,538,511
528488,509,541,497
528492,508,504,501
528496,508,484,512
528499,509,507,519
528503,508,538,504
528507,508,528,493
528512,508,499,506
528516,507,488,524
528520,507,519,525
528524,508,542,510
528528,508,522,500
528532,508,487,509
528536,507,492,520
528540,507,520,516
528544,508,537,499
528548,507,514,496
528552,506,482,510
528556,505,488,518
528560,506,525,510
528564,505,534,497
528568,505,502,500
528572,506,475,513
528576,507,494,519
528580,506,532,508
528584,507,528,498
528588,507,491,502
528592,507,474,518
528596,507,499,522
528601,507,531,509
528605,507,522,498
528609,507,486,505
528612,507,478,521
528616,507,511,521
528620,508,538,506
528624,508,519,498
528628,508,484,509
528632,508,484,521
528636,508,518,513
528641,507,537,498
528645,506,512,496
528649,505,481,510
528653,506,492,520
528657,506,527,510
528661,507,535,495
528665,507,505,499
528668,507,480,514
528672,507,498,521
528676,506,531,512
528680,507,531,500
528685,506,499,504
528689,506,482,519
528693,506,506,523
528697,506,537,511
528701,508,525,499
528705,508,490,506
528709,509,483,522
528713,510,513,523
528717,510,537,509
528721,509,519,502
528724,509,485,511
528729,509,487,522
528733,509,520,517
528737,510,538,504
528741,510,512,499
528745,510,480,508
528749,510,491,518
528753,510,526,511
528757,509,535,497
528761,508,507,498
528765,507,484,511
528770,508,501,518
528774,508,531,510
528778,508,530,498
528781,508,497,502
528785,508,480,516
528789,508,507,520
528793,508,539,507
528797,508,529,497
528801,507,494,506
528805,506,486,521
528809,505,513,521
528814,506,536,507
528818,507,517,500
528822,507,488,510
528826,508,490,524
528830,508,522,521
528834,507,537,501
528837,507,513,495
528841,506,484,508
528845,506,492,517
528849,506,523,510
528854,506,531,496
528858,507,503,496
528862,507,479,511
528866,507,495,518
528870,507,527,508
528874,507,527,495
528878,507,493,498
528882,508,475,512
528886,508,500,519
528890,509,531,508
528893,509,522,499
528898,508,489,508
528902,508,480,522
528906,508,510,522
528910,508,536,509
528914,506,520,501
528918,505,490,511
528922,506,491,522
528926,508,517,515
528930,505,533,499
528934,504,509,496
528939,506,478,509
528943,508,488,519
528947,508,524,510
528950,508,532,495
528954,507,502,496
528958,506,480,511
528962,506,501,519
528966,507,532,506
528970,508,529,494
528974,508,496,500
528978,509,481,517
528983,509,507,520
528987,509,536,507
528991,509,525,497
528995,509,488,507
528999,509,485,522
529003,509,520,521
529006,509,542,504
529010,508,516,494
529014,508,484,506
529018,508,486,519
529022,507,519,515
529027,508,535,501
529031,508,510,496
529035,507,480,509
529039,506,490,516
529043,506,523,506
529047,507,530,491
529051,507,501,492
529055,506,478,508
529059,505,495,514
529062,505,527,505
529067,507,525,494
529071,508,494,500
529075,508,480,516
529079,508,505,519
529083,508,533,505
529087,507,523,496
529091,506,490,506
529095,507,483,518
529099,507,513,517
529103,507,536,502
529107,507,518,494
529112,505,486,506
529116,505,487,519
529119,505,519,514
529123,505,533,499
529127,505,508,496
529131,504,478,507
529135,505,488,517
529139,506,522,510
529143,506,529,496
529147,505,500,496
529152,506,479,512
529156,507,496,521
529160,507,525,508
529164,507,523,495
529168,508,494,501
529172,508,480,516
529175,508,503,519
529179,508,531,505
529183,507,522,496
529187,506,488,505
529191,508,484,519
529196,509,513,518
529200,508,537,504
529204,508,518,496
529208,507,485,506
529212,507,486,517
529216,507,517,511
529220,507,534,496
529224,507,509,492
529228,506,482,504
529231,506,494,514
529235,507,527,507
529240,508,532,494
529244,508,502,496
529248,507,480,509
529252,507,501,515
529256,507,534,508
529260,507,531,496
529264,508,499,500
529268,509,484,515
529272,508,507,519
529276,507,535,503
529281,506,527,493
529285,506,496,502
529288,507,488,517
529292,508,516,518
529296,509,536,504
529300,510,518,497
529304,509,486,506
529308,509,487,517
529312,509,520,512
529316,509,536,498
529320,509,510,494
529325,508,482,506
529329,509,492,515
529333,508,526,505
529337,507,532,491
529341,507,502,493
529344,507,479,508
529348,509,499,516
529352,510,533,508
529356,510,532,498
529360,510,497,504
529364,509,480,516
529369,509,507,520
529373,509,536,507
529377,508,526,497
529381,507,493,503
529385,507,486,519
529389,508,515,521
529393,508,538,506
529397,506,520,499
529400,506,485,510
529404,507,488,521
529409,508,522,515
529413,507,537,499
529417,507,511,496
529421,507,481,508
529425,509,490,518
529429,508,525,510
529433,508,534,495
529437,508,502,496
529441,507,481,511
529445,507,501,517
529449,507,536,506
529454,508,532,494
529457,508,498,499
529461,509,487,515
529465,509,515,521
529469,509,543,507
529473,509,530,497
529477,508,493,504
529481,508,484,519
529485,508,515,519
529489,508,538,504
529494,507,518,496
529498,506,485,507
529502,505,488,518
529506,505,523,511
529510,506,537,496
529513,507,511,493
529517,508,482,507
529521,508,496,518
529525,508,530,510
529529,508,536,494
529533,508,507,496
529538,508,483,511
529542,508,504,519
529546,507,538,508
529550,506,535,496
529554,506,504,502
529558,507,489,517
529562,507,512,520
529566,507,540,507
529569,507,528,496
529573,507,493,504
529577,507,487,520
529582,508,516,518
529586,509,537,503
529590,510,519,496
529594,510,489,508
529598,509,491,520
529602,508,523,515
529606,508,537,502
529610,507,513,498
529614,507,486,509
529618,506,495,520
529623,506,526,511
529626,507,534,495
529630,507,508,498
529634,508,487,515
529638,508,504,521
529642,509,532,510
529646,509,530,497
529650,510,499,503
529654,509,484,519
529658,508,509,524
529662,509,535,512
529667,509,522,501
529671,508,492,511
529675,508,487,525
529679,509,512,521
529682,509,532,504
529686,509,517,496
529690,508,487,508
529694,508,489,522
529698,509,522,517
529702,508,536,500
529707,508,509,497
529711,508,481,510
529715,507,495,520
529719,507,526,511
529723,508,530,496
529727,508,502,497
529731,508,482,513
529735,507,500,519
529738,507,531,507
529742,506,527,497
529746,505,497,505
529751,506,483,520
529755,507,507,522
529759,507,534,508
529763,506,523,497
529767,507,490,508
529771,507,486,522
529775,507,517,522
529779,507,537,506
529783,507,517,498
529787,507,487,510
529792,506,491,523
529795,507,522,516
529799,507,535,498
529803,507,512,496
529807,508,482,510
529811,509,492,517
529815,508,528,510
529819,508,536,498
529823,509,502,498
529827,509,480,513
529831,509,500,519
529836,509,533,508
529840,510,533,496
529844,510,500,502
529848,510,482,516
529851,509,509,519
529855,509,537,506
529859,508,526,498
529863,508,492,507
529867,508,485,520
529871,507,517,518
529875,508,540,504
529880,507,520,498
529884,506,490,510
529888,506,492,521
529892,506,522,513
529896,507,538,496
529900,508,511,494
529904,508,484,509
529907,507,495,519
529911,507,528,509
529915,508,533,494
529920,508,502,496
529924,509,479,511
529928,508,499,516
529932,508,531,506
529936,509,528,495
529940,508,496,502
529944,508,482,518
529948,507,507,519
529952,507,534,505
529956,506,524,496
529960,506,489,506
529964,507,481,521
529968,508,515,519
529972,508,539,502
529976,510,519,496
529980,508,486,507
529984,508,487,518
529988,507,520,512
529992,506,535,497
529996,506,510,496
530000,506,484,510
530004,506,497,521
530009,506,529,511
530013,506,531,496
530017,506,504,494
530020,507,485,511
530024,507,505,518
530028,506,535,505
530032,506,532,494
530036,506,499,502
530040,506,485,519
530044,507,511,522
530049,507,537,508
530053,508,524,499
530057,508,492,509
530061,508,485,522
530065,509,515,520
530069,509,537,505
530073,510,517,499
530076,510,485,509
530080,511,485,518
530084,510,516,512
530088,509,530,497
530093,508,507,495
530097,509,481,509
530101,508,493,521
530105,507,524,512
530109,507,529,496
530113,506,499,498
530117,507,479,513
530121,508,500,520
530125,509,531,509
530129,509,526,498
530132,508,492,504
530137,509,478,519
530141,508,505,521
530145,508,532,509
530149,508,520,498
530153,508,487,506
530157,507,482,519
530161,507,511,517
530165,507,533,503
530169,507,514,497
530173,506,483,510
530178,506,486,519
530182,506,519,513
530186,506,533,498
530189,506,506,495
530193,506,477,508
530197,505,491,518
530201,507,528,510
530205,509,532,496
530209,510,503,498
530213,509,480,511
530217,507,500,519
530222,507,533,509
530226,507,528,496
530230,508,494,501
530234,508,480,516
530238,509,507,519
530242,508,535,505
530245,508,523,497
530249,508,488,506
530253,508,485,521
530257,506,517,519
530262,506,537,501
530266,506,518,494
530270,507,483,508
530274,507,487,519
530278,507,523,511
530282,507,537,496
530286,507,510,494
530290,507,482,510
530294,508,494,518
530298,508,527,508
530301,506,533,494
530306,507,502,496
530310,507,481,511
530314,508,502,520
530318,506,533,509
530322,507,531,497
530326,507,497,503
530330,506,482,517
530334,507,509,519
530338,507,535,504
530342,507,522,497
530347,506,490,508
530351,507,486,521
530355,506,515,519
530359,506,535,502
530363,506,516,498
530367,507,487,510
530371,508,491,520
530375,508,524,513
530379,507,535,498
530383,507,509,497
530387,506,484,512
530392,505,496,521
530396,506,528,512
530400,507,534,497
530404,508,506,501
530408,508,487,518
530411,508,505,524
530415,508,533,511
530419,508,530,499
530423,508,497,505
530427,509,483,518
530432,509,509,520
530436,508,534,507
530440,507,521,499
530444,507,487,508
530448,508,485,522
530452,509,515,519
530456,509,537,503
530460,508,515,497
530464,508,483,510
530467,507,486,523
530471,506,519,517
530476,506,533,500
530480,507,507,497
530484,507,480,512
530488,508,495,523
530492,508,530,513
530496,508,532,497
530500,506,500,496
530504,506,480,509
530508,507,498,515
530512,508,529,505
530516,507,526,495
530521,507,495,500
530524,507,484,516
530528,508,508,518
530532,508,534,505
530536,507,522,496
530540,507,490,505
530544,507,485,520
530548,508,514,518
530552,508,535,502
530556,508,517,499
530561,509,487,510
530565,508,490,520
530569,508,522,514
530573,507,534,499
530577,507,506,496
530580,507,480,507
530584,508,495,516
530588,508,529,508
530592,508,532,493
530596,509,504,496
530600,509,482,512
530605,508,503,517
530609,507,534,507
530613,508,529,497
530617,508,497,504
530621,508,487,520
530625,508,511,520
530629,509,534,504
530633,510,522,495
530636,510,489,506
530640,509,484,520
530644,508,516,518
530649,508,538,503
530653,509,517,497
530657,509,486,510
530661,508,491,522
530665,507,526,515
530669,507,534,497
530673,508,507,494
530677,509,478,509
530681,510,493,519
530685,510,529,511
530690,509,533,497
530693,509,502,499
530697,509,480,514
530701,509,501,520
530705,509,532,509
530709,509,527,497
530713,508,493,503
530717,508,483,518
530721,508,510,521
530725,509,537,506
530729,508,524,500
530734,507,491,510
530738,507,487,523
530742,508,518,521
530746,507,538,506
530749,507,516,500
530753,506,484,509
530757,506,486,521
530761,507,516,515
530765,508,534,501
530769,508,509,498
530774,508,479,510
530778,508,491,517
530782,508,524,508
530786,507,529,494
530790,508,499,496
530794,509,480,513
530798,508,501,519
530802,508,533,508
530805,509,529,496
530809,509,495,502
530813,509,482,518
530818,509,509,519
530822,508,536,505
530826,507,522,497
530830,506,488,509
530834,506,486,523
530838,506,515,520
530842,505,534,507
530846,506,513,502
530850,507,485,513
530854,507,489,524
530859,506,522,515
530862,506,533,499
530866,507,508,499
530870,506,483,512
530874,505,494,521
530878,505,527,511
530882,506,531,496
530886,505,498,498
530890,505,480,513
530894,506,500,517
530898,505,530,505
530903,505,526,496
530907,504,494,504
530911,505,482,518
530915,506,508,520
530918,506,531,505
530922,506,517,497
530926,507,483,506
530930,508,479,521
530934,507,512,518
530938,506,535,503
530942,506,515,501
530947,506,481,511
530951,505,485,521
530955,505,521,514
530959,507,531,499
530963,506,505,499
530967,506,479,513
530971,506,491,522
530974,506,524,513
530978,506,528,500
530982,506,495,502
530987,506,476,515
530991,507,501,521
530995,508,531,509
530999,508,526,497
531003,508,495,507
531007,507,484,522
531011,507,510,524
531015,508,537,509
531019,508,522,501
531023,506,487,508
531027,506,483,521
531031,508,516,519
531035,508,534,503
531039,508,513,498
531043,507,483,511
531047,507,490,522
531051,507,523,514
531055,507,535,499
531059,507,507,498
531063,508,481,511
531067,509,495,519
531072,508,527,508
531076,509,534,495
531080,509,503,498
531084,508,485,516
531087,507,507,522
531091,507,535,511
531095,506,527,499
531099,507,494,506
531103,508,484,521
531107,507,513,523
531111,507,539,509
531116,508,525,499
531120,509,492,510
531124,509,488,525
531128,509,517,523
531132,508,537,506
531136,508,516,499
531140,508,484,510
531143,506,489,518
531147,506,521,511
531151,507,535,497
531155,508,507,497
531160,507,480,512
531164,507,495,520
531168,507,530,510
531172,507,535,495
531176,508,503,499
531180,509,481,515
531184,508,501,519
531188,509,534,509
531192,509,528,499
531196,508,492,507
531200,507,481,522
531204,508,508,522
531208,508,534,507
531212,509,520,498
531216,508,486,508
531220,508,484,521
531224,508,516,519
531228,509,536,506
531232,509,513,500
531236,509,484,513
531240,508,489,525
531245,507,518,517
531249,506,529,500
531253,507,503,497
531256,506,479,512
531260,506,494,521
531264,507,528,511
531268,506,532,497
531272,507,500,500
531276,508,480,515
531280,510,502,522
531284,509,534,508
531289,508,528,497
531293,509,494,503
531297,510,484,519
531301,510,511,522
531305,509,539,510
531309,509,528,503
531312,507,493,511
531316,507,489,524
531320,508,521,521
531324,508,539,507
531329,507,517,503
531333,505,488,515
531337,505,493,523
531341,505,525,515
531345,507,535,497
531349,507,511,495
531353,507,487,508
531357,507,500,517
531361,507,532,507
531365,507,534,494
531368,507,504,498
531373,507,486,513
531377,506,504,518
531381,507,532,505
531385,508,528,495
531389,508,498,503
531393,507,488,517
531397,507,515,519
531401,507,540,505
531405,507,523,498
531409,507,486,507
531414,506,483,521
531418,508,513,518
531422,507,535,502
531425,508,516,497
531429,508,487,508
531433,508,492,519
531437,508,525,512
531441,509,536,497
531445,509,509,496
531449,508,485,510
531453,508,499,517
531458,507,529,507
531462,507,530,495
531466,508,498,497
531470,508,478,510
531474,508,502,516
531478,509,536,504
531481,509,529,494
531485,509,496,500
531489,508,485,516
531493,508,514,519
531497,508,540,505
531502,507,523,496
531506,507,489,507
531510,508,487,520
531514,508,519,518
531518,508,537,504
531522,508,514,499
531526,508,484,512
531530,507,492,522
531534,507,525,515
531537,507,535,499
531542,507,510,499
531546,507,485,512
531550,506,498,521
531554,506,529,509
531558,504,530,494
531562,504,498,497
531566,504,481,512
531570,504,506,519
531574,505,535,508
531578,506,526,496
531582,506,493,504
531587,505,483,521
531591,505,512,524
531594,506,537,509
531598,506,520,498
531602,506,486,508
531606,506,485,521
531610,507,518,518
531614,507,537,503
531618,506,516,498
531622,506,484,511
531627,506,490,521
531631,505,525,514
531635,505,535,500
531639,506,506,498
531643,507,480,512
531647,507,496,519
531650,507,530,510
531654,508,533,498
531658,508,501,500
531662,508,482,515
531666,508,503,519
531671,508,533,506
531675,507,526,493
531679,507,494,502
531683,507,485,519
531687,508,511,518
531691,508,535,504
531695,508,521,497
531699,508,489,508
531703,508,489,524
531706,507,518,520
531710,508,534,502
531715,508,511,497
531719,509,481,510
531723,509,487,519
531727,508,520,514
531731,507,533,499
531735,506,507,498
531739,506,482,511
531743,506,494,517
531747,507,526,508
531751,507,529,494
531756,508,496,496
531759,508,479,512
531762,507,500,517
531766,508,529,505
531770,508,524,494
531774,508,494,502
531778,508,481,516
531782,508,509,516
531786,508,533,503
531790,508,519,495
531794,508,485,505
531799,507,483,520
531803,508,516,519
531807,509,534,505
531811,509,512,500
531814,508,482,512
531817,508,488,521
531821,508,522,515
531825,508,533,499
531829,509,505,497
531833,509,481,512
531837,509,496,522
531842,509,528,513
531846,508,531,499
531850,508,502,503
531854,507,480,516
531858,507,501,520
531862,508,532,508
531866,508,526,499
531869,509,493,508
531872,508,482,521
531876,507,509,521
531880,506,535,506
531885,506,522,498
531889,508,490,508
531893,507,489,523
531897,507,522,520
531901,506,539,505
531905,506,517,500
531909,507,484,512
531913,508,490,523
531917,506,523,515
531921,506,534,501
531924,506,509,499
531928,506,483,511
531932,506,498,518
531936,507,531,507
531940,507,532,494
531944,507,498,499
531948,508,482,513
531952,508,506,519
531956,509,536,508
531960,509,528,497
531964,507,494,505
531969,507,482,521
531973,509,510,521
531977,509,538,508
531980,508,522,498
531983,508,488,506
531987,509,488,522
531991,510,520,519
531995,510,539,502
531999,509,518,499
532003,510,487,511
532007,510,491,520
532012,510,524,513
532016,509,536,497
532020,509,510,497
532024,509,484,512
532028,508,498,519
532032,509,531,507
532035,509,537,494
532038,509,502,495
532042,509,481,511
532046,509,504,517
532050,509,538,507
532055,508,530,497
532059,508,496,505
532063,509,485,523
532067,509,514,522
532071,509,540,508
532075,509,523,499
532079,509,488,509
532083,510,487,520
532087,509,519,517
532090,508,539,505
532094,508,517,503
532099,508,487,514
532103,510,494,524
532107,509,526,514
532111,509,535,499
532115,509,507,498
532119,508,481,512
532123,508,497,519
532127,507,535,508
532131,508,537,495
532135,508,502,498
532140,508,483,513
532144,507,505,516
532147,506,535,501
532151,505,531,488
532155,507,493,498
532159,508,483,519
532163,508,514,519
532167,508,537,503
532171,509,526,495
532175,510,493,510
532179,509,489,524
532184,508,521,514
532188,508,538,497
532192,508,516,489
532196,507,487,500
532200,506,492,518
532203,506,534,511
532207,505,551,489
532211,506,513,488
532215,507,493,504
532219,508,490,526
532224,508,526,518
532228,508,528,499
532232,508,507,497
532236,509,481,514
532240,509,504,525
532244,509,540,516
532248,509,552,495
532252,508,498,498
532256,507,465,527
532259,507,508,529
532263,508,534,512
532268,506,522,508
532272,506,494,515
532276,506,493,537
532280,508,533,518
532284,507,552,497
532288,507,515,511
532292,508,485,534
532296,507,475,534
532300,508,510,521
532304,508,538,507
532308,507,535,528
532313,507,500,540
532316,508,506,521
532320,508,513,500
532324,507,520,499
532328,506,488,498
532332,507,470,508
532336,507,504,524
532340,509,553,539
532344,509,568,520
532348,508,515,520
532353,507,509,554
532357,508,544,572
532361,509,532,527
532365,509,522,520
532369,509,487,510
532372,509,478,529
532376,510,524,560
532380,509,531,526
532384,509,495,521
532388,508,503,548
532392,507,520,545
532397,506,533,525
532401,506,536,545
532405,507,515,517
532409,507,482,519
532413,508,497,516
532417,508,529,503
532421,509,536,492
532425,509,510,493
532428,508,467,505
532432,508,496,523
532436,508,551,550
532441,508,543,527
532445,509,521,497
532449,508,515,557
532453,507,517,520
532457,506,547,514
532461,505,496,511
532465,506,451,492
532469,507,460,516
532473,508,502,540
532477,507,522,465
532482,508,516,461
532485,508,498,500
532489,507,519,507
532493,508,516,492
532497,508,526,505
532501,507,487,479
532505,506,485,513
532509,506,565,565
532513,507,529,528
532517,507,488,457
532521,507,480,457
532526,506,475,502
532530,507,485,483
532534,508,508,458
532538,509,533,485
532541,509,557,563
532545,508,574,598
532549,509,504,487
532553,509,506,502
532557,509,486,476
532561,509,474,495
532566,509,445,469
532570,509,512,481
532574,509,530,463
532578,508,509,490
532582,507,436,485
532586,507,444,486
532590,506,490,479
532594,506,519,475
532597,506,533,508
532601,506,507,520
532605,507,495,564
532610,507,515,525
532614,506,556,511
532618,506,491,476
532622,507,446,468
532626,507,479,476
532630,507,570,540
532634,507,561,542
532638,506,482,497
532642,506,457,494
532646,507,506,493
532651,508,602,579
532654,508,571,577
532658,509,468,498
532662,509,414,447
532666,509,460,448
532670,509,502,459
532674,509,512,495
532678,508,502,569
532682,507,477,545
532686,507,549,512
532690,506,544,517
532695,505,500,482
532699,505,468,483
532703,506,501,516
532707,506,514,484
532710,506,533,468
532714,504,506,521
532718,505,457,525
532722,505,473,499
532726,506,547,508
532730,507,556,516
532734,506,569,557
532739,505,484,544
532743,507,504,537
532747,508,507,474
532751,508,486,503
532755,508,462,500
532759,507,487,561
532763,507,538,530
532766,508,600,567
532770,509,551,594
532774,507,437,456
532779,507,429,424
532783,507,486,436
532787,507,505,445
532791,506,494,475
532795,506,499,508
532799,506,531,526
532803,506,542,541
532807,505,579,543
532811,507,652,642
532815,507,501,558
532819,508,410,465
532823,509,454,444
532827,510,504,485
532831,509,458,465
532835,507,491,547
532839,507,476,570
532843,509,489,445
532847,509,482,439
532851,509,509,523
532855,510,589,574
532859,509,548,539
532864,509,504,481
532868,508,452,453
532872,508,428,474
532876,509,456,489
532879,509,542,557
532883,508,543,520
532887,508,516,497
532891,508,487,517
532895,509,493,518
532899,509,548,503
532903,509,550,488
532908,508,482,514
532912,508,475,526
532916,508,488,554
532920,508,594,513
532924,509,539,486
532928,509,461,467
532932,509,445,476
532935,508,496,483
532939,508,541,491
532943,509,531,510
532947,510,513,548
532952,511,527,530
532956,510,537,516
532960,509,508,470
532964,509,474,465
532968,509,444,561
532972,508,489,502
532976,508,666,629
532980,507,559,559
532984,507,445,489
532988,507,423,454
532992,506,462,464
532996,507,491,442
533000,507,529,454
533004,508,494,472
533008,508,463,510
533012,507,506,507
533016,507,555,495
533020,506,550,495
533024,507,520,512
533028,508,518,517
533032,508,507,563
533037,508,518,554
533041,509,563,558
533045,508,601,562
533048,508,440,458
533052,509,443,466
533056,509,464,472
533060,508,463,454
533064,507,446,510
533068,508,487,550
533072,508,527,500
533076,507,528,443
533081,507,528,480
533085,508,505,497
533089,508,551,538
533093,509,570,507
533097,509,521,496
533101,509,450,469
533104,508,432,479
533108,507,476,511
533112,508,531,526
533116,508,567,523
533121,507,588,575
533125,508,624,614
533129,508,478,550
533133,509,438,433
533137,510,440,436
533141,510,434,483
533145,510,452,469
533149,510,545,498
533153,510,578,510
533157,509,483,469
533160,509,454,490
533165,508,495,488
533169,507,535,497
533173,508,554,510
533177,508,492,494
533181,507,467,542
533185,507,472,506
533189,508,572,551
533193,509,554,532
533197,508,497,475
533201,507,463,491
533206,507,479,524
533210,507,540,548
533214,506,507,479
533217,506,486,456
533221,507,483,485
533225,506,514,516
533229,507,537,543
533233,506,534,499
533237,507,487,476
533241,508,465,502
533245,508,517,492
533250,507,526,478
533254,505,498,475
533258,504,527,548
533262,505,478,529
533266,505,503,491
533270,506,511,483
533273,507,510,522
533277,508,524,565
533281,507,475,521
533285,507,491,477
533289,507,500,450
533294,506,481,491
533298,505,506,522
533302,507,524,527
533306,507,540,538
533310,507,529,486
533314,506,475,468
533318,507,466,498
533322,508,537,508
533326,508,633,599
533329,507,557,544
533334,506,431,463
533338,506,434,477
533342,507,482,486
533346,508,542,507
533350,507,598,568
533354,507,490,570
533358,507,469,481
533362,508,509,482
533366,507,551,489
533370,507,553,561
533374,507,464,531
533379,507,477,504
533383,507,531,460
533386,508,582,474
533390,508,527,503
533394,508,447,508
533398,509,495,504
533402,508,588,530
533406,509,543,518
533410,509,530,568
533414,508,576,627
533419,508,550,581
533423,507,456,461
533427,507,458,465
533431,508,433,460
533435,508,439,489
533439,509,502,479
533442,509,578,525
533446,508,526,543
533450,507,477,496
533454,507,455,463
533458,508,506,462
533463,508,604,502
533467,507,520,491
533471,506,436,488
533475,507,467,520
533479,506,541,509
533483,506,575,507
533487,505,510,524
533491,506,450,498
533495,507,479,510
533498,507,588,534
533502,508,567,539
533507,508,523,554
533511,508,540,544
533515,507,478,503
533519,508,496,509
533523,508,464,466
533527,508,435,456
533531,508,456,503
533535,508,506,490
533539,508,546,480
533543,507,523,484
533548,507,458,488
533552,506,463,500
533555,506,518,518
533559,506,545,503
533563,505,511,487
533567,503,505,496
533571,503,553,550
533575,505,581,540
533579,505,526,501
533583,505,460,502
533587,506,465,535
533592,506,488,505
533596,507,527,520
533600,507,516,488
533604,508,522,532
533608,508,497,516
533611,508,489,482
533615,508,540,485
533619,508,495,464
533623,509,492,514
533627,509,554,584
533632,509,559,548
533636,508,494,463
533640,508,503,510
533644,508,558,577
533648,508,489,508
533652,507,476,468
533656,506,499,458
533660,507,496,507
533664,507,477,531
533667,507,527,511
533671,507,529,489
533676,507,508,478
533680,507,493,513
533684,507,533,557
533688,508,513,520
533692,507,538,510
533696,506,562,527
533700,508,470,491
533704,508,451,500
533708,507,538,528
533712,507,526,470
533716,507,504,486
533721,508,505,536
533724,509,470,511
533728,510,490,483
533732,509,522,483
533736,507,580,515
533740,507,508,534
533744,507,494,568
533748,507,526,593
533752,509,506,472
533756,508,508,475
533761,507,508,496
533765,507,540,506
533769,507,496,493
533773,506,496,462
533777,506,509,489
533780,507,484,513
533784,508,469,495
533788,509,518,508
533792,510,546,536
533796,509,499,509
533800,508,549,550
533805,508,509,518
533809,507,521,507
533813,507,487,508
533817,508,539,581
533821,509,559,614
533825,510,519,592
533829,509,497,456
533833,509,468,447
533836,508,433,458
533840,509,464,478
533844,510,533,479
533849,510,628,520
533853,509,603,592
533857,508,437,486
533861,508,448,481
533865,508,513,489
533869,508,510,467
533873,507,490,472
533877,507,501,520
533881,507,507,524
533885,508,556,514
533890,510,591,594
533893,510,563,659
533897,509,474,502
533901,508,478,480
533905,509,544,511
533909,509,477,476
533913,508,434,441
533917,508,481,482
533921,508,595,527
533925,508,551,523
533929,508,469,472
533934,508,436,482
533938,507,468,490
533942,507,537,531
533946,507,624,634
533949,506,558,546
533953,507,443,468
533957,508,453,454
533961,507,508,472
533965,507,543,522
533969,506,534,531
533974,506,486,512
533978,506,476,482
533982,505,509,519
533986,506,537,501
533990,506,553,508
533994,506,512,560
533998,507,483,494
534002,507,504,503
534005,508,521,501
534009,508,572,584
534013,509,512,509
534018,509,460,450
534022,509,483,453
534026,507,499,500
534030,508,572,556
534034,507,543,518
534038,507,480,496
534042,507,497,489
534046,508,478,499
534050,507,454,560
534054,506,481,471
534059,506,543,478
534062,507,555,478
534066,507,499,483
534070,507,467,502
534074,508,573,596
534078,508,685,622
534082,508,726,661
534086,508,456,500
534090,508,348,412
534094,508,405,431
534098,508,473,446
534103,509,484,451
534107,508,493,494
534111,509,541,558
534115,509,540,576
534118,508,535,477
534122,507,505,469
534126,505,467,528
534130,506,528,555
534134,506,555,550
534138,507,514,477
534142,508,545,511
534147,508,550,557
534151,509,520,528
534155,509,519,508
534159,510,576,551
534163,509,448,473
534167,508,401,459
534171,508,417,464
534174,509,504,488
534178,508,502,495
534182,507,496,478
534187,507,470,483
534191,507,499,483
534195,507,540,508
534199,506,526,488
534203,506,521,510
534207,507,569,570
534211,508,575,549
534215,507,542,484
534219,506,477,473
534223,505,515,564
534227,506,488,574
534231,507,476,509
534235,507,474,482
534239,506,466,463
534243,506,466,471
534247,505,541,572
534251,505,604,570
534255,505,475,433
534259,506,424,424
534263,506,438,445
534267,508,519,545
534272,508,559,512
534276,508,504,454
534280,508,461,458
534284,509,505,498
534287,509,614,569
534291,508,669,607
534295,509,492,503
534299,509,412,479
534303,509,428,477
534307,509,518,574
534311,508,517,521
534316,508,529,518
534320,509,474,515
534324,508,470,550
534328,507,584,522
534332,506,570,481
534336,506,457,461
534340,507,410,461
534343,508,506,511
534347,509,617,590
534351,509,525,476
534355,508,445,445
534360,508,482,507
534364,508,514,506
534368,507,608,518
534372,508,487,464
534376,507,431,460
534380,507,446,490
534384,507,511,544
534388,506,534,584
534392,505,541,524
534396,505,465,517
534400,507,467,465
534404,507,477,497
534408,507,504,460
534412,506,485,438
534416,507,474,483
534420,507,489,512
534424,508,542,519
534428,508,622,525
534432,507,527,508
534436,506,455,494
534440,505,472,495
534445,505,533,501
534449,505,627,535
534453,506,487,518
534456,506,423,486
534460,508,447,510
534464,508,487,484
534468,508,524,507
534472,508,483,552
534476,506,468,546
534480,506,503,470
534484,507,523,431
534489,507,505,441
534493,506,488,484
534497,506,525,542
534501,507,605,578
534505,506,546,497
534508,506,478,471
534511,504,476,498
534515,505,511,530
534519,507,531,511
534523,507,512,485
534528,506,495,480
534532,507,525,599
534536,508,531,613
534540,507,511,459
534544,508,479,436
534548,508,456,457
534552,508,464,493
534556,509,527,505
534560,509,552,498
534563,509,569,521
534566,507,494,522
534571,508,510,525
534575,508,527,528
534579,507,550,534
534583,508,535,481
534587,508,487,485
534591,507,469,503
534595,508,523,526
534599,508,554,528
534603,508,473,490
534607,507,452,502
534611,506,482,518
534616,506,546,579
534619,505,525,494
534622,506,496,493
534626,506,471,476
534630,506,495,472
534634,506,544,484
534638,507,585,515
534642,508,528,525
534646,508,472,506
534650,508,497,525
534654,508,545,515
534659,507,506,475
534663,508,469,489
534667,507,514,552
534671,508,602,605
534674,509,514,517
534677,509,472,470
534681,509,448,501
534685,510,480,516
534689,509,524,522
534693,508,529,531
534697,507,492,503
534702,507,479,471
534706,507,549,572
534710,507,526,488
534714,508,511,458
534718,507,487,477
534722,507,482,515
534726,507,496,517
534729,507,544,519
534732,507,545,498
534736,509,544,516
534740,509,548,548
534745,509,458,503
534749,509,475,502
534753,509,484,501
534757,509,465,517
534761,508,476,569
534765,507,510,497
534769,507,539,478
534773,508,555,538
534777,508,516,492
534781,508,472,504
534785,507,511,503
534789,507,530,492
534793,506,522,488
534797,506,518,546
534801,506,471,522
534805,505,496,490
534809,506,597,557
534813,507,545,549
534817,508,439,527
534821,508,453,481
534825,507,501,485
534830,508,529,498
534834,507,498,525
534838,507,475,532
534841,508,520,520
534845,508,520,473
534849,508,522,447
534853,508,499,500
534857,507,500,522
534861,507,523,516
534865,507,575,570
534870,507,506,494
534874,508,484,526
534878,509,523,564
534882,509,515,506
534886,509,509,474
534890,509,488,489
534894,508,514,541
534897,507,562,617
534901,508,581,547
534905,508,478,436
534909,506,446,441
534914,507,481,556
534918,507,530,627
534922,508,501,454
534926,508,508,429
534930,507,489,461
534934,506,464,482
534938,508,508,518
534942,508,557,508
534946,508,562,526
534950,508,502,510
534953,508,470,505
534958,509,520,533
534962,508,561,536
534966,508,502,491
534970,508,519,543
534974,507,509,572
534978,507,468,552
534982,507,486,486
534986,506,490,430
534990,508,494,482
534994,507,488,502
534999,507,518,497
535003,506,530,546
535007,508,501,492
535010,507,510,516
535014,507,522,522
535018,506,563,524
535022,505,546,504
535026,505,496,509
535030,505,468,503
535034,505,496,502
535038,506,565,530
535043,506,530,492
535047,507,468,495
535051,507,459,523
535055,506,535,574
535059,506,603,623
535063,507,518,514
535066,508,441,469
535070,509,456,487
535074,509,507,479
535078,509,530,478
535083,509,496,490
535087,507,468,504
535091,506,489,544
535095,507,558,532
535099,507,552,480
535103,507,522,492
535107,507,454,494
535111,507,478,499
535115,507,505,482
535119,509,537,508
535122,508,624,640
535127,506,557,592
535131,506,437,461
535135,507,468,441
535139,507,485,468
535143,506,494,526
535147,506,491,536
535151,507,503,543
535155,508,524,494
535159,509,504,471
535163,509,495,500
535168,509,516,542
535172,508,526,510
535176,509,551,494
535179,508,492,482
535183,508,471,498
535187,508,520,545
535191,508,534,507
535195,509,519,461
535199,507,554,518
535203,506,466,516
535207,506,496,554
535212,506,584,572
535216,506,592,547
535220,506,458,467
535224,507,433,476
535228,506,497,552
535232,506,550,497
535235,507,599,548
535239,506,486,477
535243,506,429,464
535247,506,467,472
535251,506,517,497
535256,506,514,492
535260,507,486,493
535264,508,498,520
535268,508,519,529
535272,507,552,550
535276,506,568,541
535280,505,489,498
535284,504,467,500
535288,504,516,497
535291,507,539,513
535296,506,517,531
535300,507,470,517
535304,508,486,519
535308,508,508,482
535312,508,508,497
535316,507,487,488
535320,507,481,502
535324,507,498,514
535328,508,524,478
535332,509,513,462
535336,509,491,482
535341,509,548,558
535345,509,570,579
535348,509,596,554
535352,509,490,464
535356,509,443,471
535360,509,494,514
535364,508,511,513
535368,508,520,512
535372,508,529,578
535376,508,477,505
535380,509,476,492
535385,509,519,489
535389,508,553,504
535393,507,486,481
535397,506,465,491
535401,505,511,519
535404,505,541,538
535408,506,526,485
535412,507,496,486
535416,507,487,511
535420,508,527,537
535425,507,532,515
535429,507,533,533
535433,507,495,485
535437,507,551,539
535441,507,537,547
535445,506,507,488
535449,507,514,497
535453,507,471,524
535457,508,480,515
535460,508,495,484
535464,508,512,467
535469,508,520,515
535473,507,484,521
535477,506,496,517
535481,506,520,487
535485,507,535,476
535489,507,500,482
535493,506,499,507
535497,506,508,520
535501,505,555,506
535505,506,582,545
535510,506,576,590
535514,506,544,558
535517,507,474,466
535521,507,462,443
535525,509,486,498
535529,508,508,541
535533,507,503,521
535537,507,474,481
535541,507,495,484
535545,507,479,498
535549,508,467,493
535554,507,486,498
535558,507,518,490
535562,508,534,501
535566,508,528,564
535570,508,526,538
535573,507,529,509
535577,507,520,480
535581,506,532,472
535585,506,521,486
535589,507,459,499
535593,508,509,521
535598,508,530,523
535602,507,495,477
535606,507,477,503
535610,508,509,558
535614,507,544,577
535618,507,513,484
535622,507,520,485
535626,507,474,491
535629,508,464,487
535633,508,498,493
535638,508,531,532
535642,508,509,483
535646,508,494,481
535650,509,530,523
535654,509,532,540
535658,509,546,526
535662,508,495,500
535666,508,548,577
535670,509,505,522
535674,509,482,463
535678,508,492,454
535683,507,491,485
535686,508,499,533
535690,508,524,552
535694,508,532,481
535698,508,532,502
535702,508,492,533
535706,507,493,522
535710,506,492,510
535714,506,524,492
535718,506,499,476
535723,507,465,451
535727,506,468,477
535731,506,519,500
535735,505,570,511
535739,506,591,548
535742,507,580,610
535746,507,463,502
535750,508,458,460
535754,508,507,471
535758,508,540,546
535762,507,499,522
535767,507,452,484
535771,507,492,490
535775,506,521,523
535779,506,542,588
535783,506,481,494
535787,507,462,452
535791,507,503,455
535795,506,515,469
535798,508,482,510
535802,509,541,541
535806,509,530,528
535811,509,525,487
535815,509,580,537
535819,508,485,511
535823,507,456,490
535827,508,497,494
535831,508,591,530
535835,508,581,604
535839,507,456,514
535843,507,444,522
535847,508,485,514
535852,509,523,484
535855,509,491,451
535859,508,475,479
535863,509,496,519
535867,509,565,565
535871,508,577,493
535875,508,496,484
535879,507,482,533
535883,507,508,509
535887,507,519,481
535891,508,499,458
535896,509,476,477
535900,508,508,520
535904,506,532,554
535908,506,588,552
535911,507,540,501
535915,507,465,486
535919,507,457,535
535923,509,535,532
535927,510,586,551
535931,511,475,497
535936,510,441,498
535940,508,467,494
535944,507,527,573
535948,508,512,497
535952,507,486,430
535956,508,487,472
535960,508,523,512
535964,508,560,517
535967,509,537,486
535971,510,499,489
535975,509,538,554
535980,509,536,529
535984,509,532,500
535988,509,509,496
535992,509,535,576
535996,509,522,554
536000,508,475,489
536004,507,498,482
536008,508,496,481
536012,508,471,505
536016,507,467,517
536020,507,499,484
536024,508,525,481
536028,508,513,493
536032,508,488,574
536036,507,509,508
536040,508,534,481
536044,508,549,482
536048,508,506,500
536052,508,518,544
536056,508,520,526
536060,508,563,516
536065,508,521,498
536069,509,493,518
536073,509,486,519
536077,507,535,557
536080,508,502,554
536084,508,504,556
536088,507,465,472
536092,508,450,445
536096,508,492,486
536100,509,516,484
536104,509,515,462
536109,510,523,521
536113,510,554,579
536117,509,497,494
536121,509,496,467
536125,508,494,466
536129,507,501,511
536133,506,516,544
536136,507,536,518
536140,508,558,513
536144,508,475,484
536148,507,454,491
536153,507,517,546
536157,508,544,552
536161,508,513,475
536165,508,491,568
536169,508,469,538
536173,507,498,493
536177,507,556,491
536181,506,510,486
536185,506,459,482
536188,505,467,472
536193,506,545,498
536197,507,558,532
536201,507,501,484
536205,507,486,495
536209,506,536,567
536213,506,598,582
536217,508,559,509
536221,507,568,474
536225,507,520,517
536229,508,460,557
536233,507,469,534
536238,507,502,504
536242,507,498,533
536245,506,450,502
536249,506,482,530
536253,508,507,541
536257,508,506,453
536261,507,485,441
536265,507,471,481
536269,507,501,560
536273,506,545,514
536278,507,549,467
536282,507,527,495
536286,508,470,489
536290,507,501,512
536294,506,531,523
536298,508,509,496
536301,508,517,535
536305,508,539,560
536309,508,509,506
536313,508,501,477
536317,509,478,480
536322,508,475,565
536326,508,491,551
536330,508,541,505
536334,508,516,508
536338,508,497,470
536342,508,468,511
536346,508,470,465
536350,509,513,480
536354,509,538,476
536357,507,547,555
536361,507,573,589
536366,507,491,488
536370,508,486,467
536374,508,490,459
536378,506,476,489
536382,506,481,516
536386,506,505,515
536390,506,560,508
536394,508,572,578
536398,507,480,491
536402,507,473,488
536407,507,488,523
536411,508,511,513
536414,508,515,555
536418,509,529,541
536422,509,493,496
536426,508,485,467
536430,509,504,484
536434,510,501,512
536438,510,484,510
536442,509,492,496
536446,509,518,503
536451,509,516,505
536455,508,501,485
536459,508,507,507
536463,508,508,500
536467,507,534,501
536470,506,542,519
536474,507,499,505
536478,507,480,526
536482,506,519,538
536486,506,538,506
536491,506,522,523
536495,508,478,552
536499,508,487,534
536503,508,502,491
536507,508,526,514
536511,508,505,475
536515,508,473,581
536519,507,520,517
536523,508,510,461
536526,509,532,459
536530,509,507,476
536535,509,468,491
536539,508,481,510
536543,507,520,494
536547,507,536,504
536551,508,536,522
536555,509,559,565
536559,508,543,556
536563,506,480,484
536567,507,473,463
536571,507,461,510
536576,508,470,536
536580,508,503,584
536583,508,573,504
536587,509,516,455
536591,508,455,458
536595,507,457,478
536599,507,500,492
536603,508,547,517
536607,508,542,514
536611,507,493,513
536615,507,497,511
536620,507,513,512
536624,508,520,482
536628,508,494,482
536632,508,495,526
536636,507,581,574
536639,507,575,543
536643,507,485,478
536647,507,458,477
536651,507,449,492
536655,507,508,552
536659,507,556,551
536664,506,517,495
536668,504,477,458
536672,505,479,486
536676,506,517,511
536680,507,546,483
536684,507,524,469
536688,508,487,492
536692,507,493,516
536695,506,536,527
536699,505,521,492
536704,506,518,491
536708,506,561,557
536712,507,549,609
536716,507,549,552
536720,505,487,456
536724,505,451,432
536728,505,446,479
536732,506,480,522
536736,507,551,529
536740,508,558,577
536744,509,480,528
536749,508,442,466
536752,508,501,472
536756,508,566,487
536760,505,583,485
536764,505,508,501
536768,505,442,493
536772,506,472,492
536776,506,525,506
536780,508,563,546
536784,509,529,574
536788,509,476,509
536793,509,490,477
536797,509,530,470
536801,510,511,483
536805,509,527,562
536808,509,480,523
536812,510,504,493
536816,509,550,502
536820,509,488,514
536824,508,455,555
536828,508,479,512
536833,508,572,532
536837,507,556,553
536841,506,473,454
536845,506,457,456
536849,506,485,471
536853,506,528,472
536857,506,536,483
536861,506,508,496
536864,505,528,562
536868,506,505,523
536872,506,528,491
536877,507,509,484
536881,508,474,494
536885,508,488,523
536889,508,559,605
536893,507,556,539
536897,507,495,450
536901,508,454,471
536905,508,462,498
536909,508,505,487
536913,509,526,484
536918,509,509,502
536921,507,542,612
536925,507,576,565
536929,505,498,462
536933,505,491,449
536937,505,473,469
536941,505,469,503
536945,505,519,525
536949,506,552,513
536953,506,523,482
536957,506,527,524
536962,506,497,527
536966,506,524,549
536970,507,510,484
536974,507,489,468
536977,507,479,496
536981,507,485,553
536985,507,515,536
536989,507,546,490
536993,508,529,498
536997,508,470,498
537001,509,473,494
537006,508,512,496
537010,509,531,491
537014,510,498,488
537018,509,478,508
537022,510,510,527
537026,510,580,539
537030,510,535,490
537033,510,483,499
537037,509,456,502
537041,507,485,507
537046,507,524,494
537050,508,527,490
537054,509,495,517
537058,507,479,559
537062,506,503,501
537066,506,529,489
537070,507,517,495
537074,508,481,496
537078,508,480,506
537082,508,514,509
537086,508,541,494
537090,507,526,493
537094,508,514,535
537098,508,504,517
537102,509,525,512
537106,509,530,500
537110,508,507,491
537114,509,496,486
537118,508,527,517
537122,508,535,510
537126,507,521,497
537131,507,483,498
537135,506,469,527
537139,506,493,532
537143,507,527,514
537146,507,524,503
537150,508,490,509
537154,507,485,519
537158,508,514,522
537162,508,538,510
537166,509,520,497
537170,508,484,505
537175,508,482,519
537179,508,519,519
537183,509,538,502
537187,509,529,492
537191,508,488,501
537195,508,488,515
537199,508,527,516
537202,508,532,504
537206,507,504,494
537210,507,477,513
537214,507,492,524
537219,507,527,505
537223,506,534,491
537227,507,496,496
537231,506,478,512
537235,507,497,519
537239,506,530,507
537243,506,527,494
537247,507,488,499
537251,507,476,515
537255,506,506,518
537259,507,534,505
537263,510,519,499
537267,509,483,508
537271,508,479,524
537275,508,511,518
537279,509,533,501
537283,509,513,495
537287,509,477,511
537291,508,480,520
537295,508,515,511
537299,508,526,496
537304,508,497,493
537308,508,470,504
537312,508,487,513
537315,507,528,501
537319,507,524,486
537323,506,493,491
537327,506,479,511
537331,506,492,516
537335,507,524,506
537339,507,518,494
537344,506,480,497
537348,507,468,513
537352,508,498,515
537356,510,533,500
537360,510,513,492
537364,511,476,501
537368,511,476,516
537371,510,514,517
537375,509,539,503
537379,509,512,496
537383,509,473,506
537388,510,484,520
537392,510,526,515
537396,509,531,500
537400,509,499,498
537404,508,469,510
537408,508,486,516
537412,508,527,507
537416,508,533,495
537420,507,494,499
537424,506,471,514
537427,506,497,520
537432,507,533,508
537436,507,525,496
537440,506,487,500
537444,505,475,515
537448,506,508,520
537452,505,538,508
537456,506,518,498
537460,506,480,508
537464,505,481,522
537468,506,522,521
537473,506,541,507
537477,506,509,497
537481,506,474,512
537484,507,484,525
537488,509,522,519
537492,509,533,507
537496,508,500,503
537500,507,472,511
537504,507,488,521
537508,507,523,516
537512,506,527,504
537517,507,491,508
537521,507,472,522
537525,507,496,527
537529,506,531,515
537533,506,524,506
537537,507,484,512
537540,507,471,524
537544,506,506,524
537548,506,539,513
537552,507,518,504
537556,507,479,512
537561,508,477,526
537565,507,515,524
537569,508,538,510
537573,509,515,505
537577,509,477,517
537581,509,481,527
537585,508,521,521
537589,508,540,509
537592,509,504,505
537595,508,472,515
537600,508,488,531
537604,508,526,524
537608,509,526,505
537612,508,492,506
537616,507,472,522
537620,507,498,528
537624,506,535,515
537628,506,530,504
537632,507,494,510
537636,506,484,524
537640,507,512,524
537645,506,539,510
537649,506,523,500
537652,506,488,508
537656,507,489,523
537660,508,522,521
537664,508,543,507
537668,508,521,503
537672,507,492,515
537676,508,501,527
537680,508,535,519
537684,508,542,503
537689,508,513,501
537693,508,489,515
537697,508,508,523
537701,507,541,513
537705,506,543,500
537708,506,511,505
537712,506,490,519
537716,506,514,524
537720,506,544,511
537724,507,535,498
537729,507,504,503
537733,508,491,518
537737,508,519,521
537741,508,543,507
537745,507,528,499
537749,508,495,510
537753,508,493,525
537757,509,525,523
537761,510,546,508
537764,511,523,502
537768,512,489,514
537773,512,496,527
537777,512,530,519
537781,511,542,503
537785,510,518,502
537789,509,493,515
537793,510,506,522
537797,509,539,514
537801,509,541,500
537805,509,506,501
537809,508,484,512
537814,507,509,518
537818,507,543,507
537821,507,533,494
537825,507,495,499
537829,507,483,515
537833,507,514,519
537837,507,542,507
537841,507,526,499
537845,507,492,510
537849,507,489,522
537853,507,524,521
537858,507,545,508
537862,507,520,503
537866,507,488,514
537870,506,495,525
537874,505,533,520
537877,506,544,504
537881,507,513,502
537885,507,486,515
537889,506,504,523
537893,506,538,511
537897,507,537,496
537902,507,501,497
537906,507,480,512
537910,507,506,517
537914,507,541,505
537918,508,534,495
537922,508,497,503
537926,507,486,520
537930,508,517,523
537933,508,545,508
537937,509,530,499
537942,507,492,509
537946,506,488,524
537950,506,524,521
537954,508,547,507
537958,509,523,503
537962,510,490,515
537966,510,497,526
537970,510,537,522
537974,510,548,506
537978,509,513,502
537982,509,482,516
537987,509,498,523
537990,507,535,512
537994,507,537,497
537998,506,500,500
538002,505,480,514
538006,505,506,520
538010,506,540,509
538014,507,530,497
538018,506,494,502
538022,506,483,518
538027,506,509,517
538031,506,535,502
538035,507,522,496
538039,507,486,506
538043,506,486,521
538046,505,520,520
538050,506,538,504
538054,508,515,499
538058,509,482,509
538062,509,489,522
538066,509,523,515
538071,509,534,500
538075,510,505,502
538079,509,479,514
538083,509,494,521
538087,508,530,512
538091,509,533,498
538095,508,499,500
538099,507,479,514
538102,507,502,520
538106,507,535,508
538110,507,526,497
538115,505,491,503
538119,504,483,517
538123,505,512,517
538127,508,537,501
538131,508,521,493
538135,508,489,504
538139,509,488,520
538143,509,521,518
538147,508,540,503
538151,508,520,498
538156,508,490,511
538159,508,495,519
538163,508,529,513
538167,507,538,499
538171,507,510,498
538175,507,484,511
538179,507,499,520
538183,506,535,509
538187,506,536,497
538191,506,499,498
538195,506,481,511
538200,507,507,519
538204,507,539,506
538208,507,531,493
538212,507,496,499
538215,508,485,514
538219,508,514,515
538223,508,539,503
538227,507,523,497
538231,508,492,509
538235,508,488,522
538240,507,519,518
538244,507,538,504
538248,508,516,501
538252,507,486,514
538256,506,490,525
538260,506,525,518
538264,507,538,503
538268,507,509,501
538271,508,483,516
538275,507,498,523
538279,506,531,511
538284,506,533,497
538288,506,500,501
538292,506,479,515
538296,505,504,517
538300,505,538,503
538304,505,531,492
538308,504,494,501
538312,504,481,516
538316,505,513,517
538320,505,542,503
538324,507,523,495
538328,508,487,506
538332,508,487,522
538336,507,522,518
538340,507,543,504
538344,506,517,498
538348,507,485,510
538352,507,491,522
538356,507,526,516
538360,507,538,500
538364,506,507,499
538369,507,479,512
538373,507,492,518
538377,508,528,505
538381,508,531,491
538384,508,496,495
538388,508,478,508
538392,508,503,513
538396,508,538,502
538400,508,529,490
538404,507,492,496
538408,507,480,511
538413,508,510,512
538417,509,536,498
538421,509,521,492
538425,509,487,504
538429,509,486,519
538433,510,519,515
538437,509,538,500
538440,509,514,496
538444,509,483,510
538448,509,487,522
538452,508,523,514
538457,507,539,501
538461,507,510,501
538465,508,482,514
538469,508,495,519
538473,507,529,508
538477,506,531,495
538481,506,497,497
538485,507,478,512
538489,506,503,516
538493,506,534,501
538497,506,527,490
538501,507,492,497
538505,506,481,512
538509,506,509,513
538513,506,537,499
538517,506,522,492
538521,505,487,505
538525,506,487,520
538529,507,522,518
538533,507,541,502
538537,506,517,497
538542,506,483,509
538546,506,490,519
538550,506,525,513
538553,505,535,499
538557,505,507,498
538561,506,482,513
538565,507,498,520
538569,507,531,509
538573,507,534,498
538577,507,500,500
538582,507,480,512
538586,506,502,516
538590,505,531,502
538594,506,524,492
538598,506,489,500
538602,506,479,515
538606,507,510,517
538609,508,538,504
538613,509,521,495
538617,509,487,508
538621,508,484,521
538626,509,513,515
538630,509,535,499
538634,509,512,496
538638,508,481,510
538642,509,486,520
538646,511,522,513
538650,510,534,499
538654,509,505,499
538658,508,478,514
538662,508,495,520
538665,506,531,510
538670,506,531,495
538674,508,496,497
538678,510,476,513
538682,511,502,518
538686,510,534,504
538690,510,525,493
538694,507,488,501
538698,507,478,515
538702,508,510,517
538706,508,535,501
538711,508,517,492
538715,508,481,502
538719,509,483,518
538722,509,518,516
538726,508,537,501
538730,508,514,497
538734,509,481,511
538738,509,489,521
538742,509,527,515
538746,508,535,499
538750,507,504,498
538755,506,477,513
538759,507,496,520
538763,508,531,508
538767,508,532,495
538771,507,497,497
538775,506,478,511
538778,507,503,517
538782,506,537,506
538786,506,528,495
538790,506,491,501
538795,506,482,516
538799,506,513,517
538803,507,541,504
538807,507,524,498
538811,507,487,508
538815,507,484,521
538819,507,521,518
538823,507,545,504
538827,508,519,501
538831,507,484,513
538834,507,492,523
538839,508,528,517
538843,509,539,502
538847,510,507,502
538851,508,480,516
538855,507,496,522
538859,506,531,511
538863,506,533,495
538867,507,499,499
538871,507,479,514
538875,507,504,519
538880,507,535,505
538884,508,526,494
538888,507,489,501
538891,507,478,517
538895,506,508,519
538899,506,533,505
538903,506,520,497
538907,506,487,509
538911,505,484,523
538915,505,515,520
538919,507,535,505
538924,506,513,499
538928,506,482,511
538932,506,491,522
538936,508,526,518
538940,509,536,503
538944,509,504,500
538947,507,479,514
538951,507,496,521
538955,508,528,509
538959,507,528,495
538963,508,494,496
538968,508,476,509
538972,508,501,515
538976,507,532,504
538980,507,525,494
538984,507,491,501
538988,506,480,517
538992,506,511,517
538996,507,538,503
539000,508,522,497
539003,507,487,509
539008,507,487,524
539012,507,518,520
539016,508,535,502
539020,509,511,496
539024,509,480,511
539028,509,490,524
539032,509,525,516
539036,509,535,501
539040,509,505,500
539044,507,475,512
539048,508,491,518
539053,509,526,508
539057,509,526,496
539060,508,494,499
539064,507,478,513
539068,507,503,518
539072,508,534,505
539076,509,527,494
539080,509,490,501
539084,508,478,515
539088,509,510,515
539092,508,540,504
539097,508,521,498
539101,507,485,507
539105,507,486,519
539109,508,522,516
539113,509,540,501
539116,509,516,497
539120,508,483,510
539124,509,489,522
539128,509,526,516
539132,509,538,500
539137,509,506,499
539141,509,478,513
539145,509,497,520
539149,508,534,510
539153,508,531,495
539157,507,496,499
539161,507,477,513
539165,507,503,516
539169,506,539,505
539172,506,533,497
539176,506,494,502
539181,507,482,514
539185,508,514,516
539189,508,541,505
539193,508,523,498
539197,508,486,507
539201,508,486,522
539205,508,522,519
539209,507,539,505
539213,507,513,500
539217,508,483,510
539222,507,493,522
539226,508,529,516
539230,508,540,501
539234,508,508,500
539238,508,480,513
539242,507,495,520
539246,507,531,509
539250,507,534,496
539254,507,498,499
539258,507,478,515
539262,507,503,519
539267,506,535,507
539271,506,527,496
539275,507,490,501
539279,508,480,515
539282,508,513,518
539286,509,541,505
539290,509,523,498
539294,508,487,510
539298,508,489,523
539302,508,524,519
539307,508,540,504
539311,508,515,497
539315,508,482,510
539319,507,489,523
539323,506,527,518
539327,507,539,504
539331,507,507,504
539335,508,481,517
539338,507,498,524
539342,508,530,514
539346,510,532,501
539351,510,500,504
539355,508,481,518
539359,508,503,521
539363,508,533,507
539367,508,525,496
539371,508,491,503
539375,507,480,517
539379,508,509,518
539383,508,535,503
539387,507,518,496
539392,507,486,509
539395,509,483,522
539399,508,519,516
539403,507,537,502
539407,509,513,499
539411,509,481,513
539415,510,491,525
539419,511,528,520
539423,509,537,506
539427,507,503,505
539431,506,475,518
539436,506,494,524
539440,506,532,513
539444,507,533,499
539448,508,498,501
539451,508,479,516
539455,508,504,522
539459,508,535,509
539463,509,524,496
539467,509,487,504
539471,509,479,521
539475,508,510,523
539480,507,537,509
539484,507,520,502
539488,507,484,512
539492,508,482,524
539496,508,519,522
539500,508,539,505
539504,507,512,500
539507,506,481,512
539511,507,492,522
539515,509,529,515
539520,510,538,501
539524,510,506,501
539528,510,481,514
539532,509,500,522
539536,509,535,512
539540,510,534,500
539544,510,498,501
539548,509,476,514
539552,508,501,519
539556,510,533,506
539560,510,526,495
539564,510,490,502
539568,509,482,518
539572,509,513,517
539576,509,537,503
539580,509,519,496
539584,509,483,507
539588,508,484,523
539592,507,519,519
539596,508,538,503
539600,508,513,498
539604,506,481,511
539609,506,492,523
539613,507,530,518
539617,507,536,503
539620,507,504,500
539624,507,475,513
539628,506,493,520
539632,507,532,509
539636,506,532,497
539640,506,495,501
539644,506,474,516
539649,508,500,519
539653,508,533,506
539657,507,523,493
539661,505,487,500
539665,506,477,515
539669,507,508,515
539673,508,535,504
539676,508,516,497
539680,508,479,507
539684,509,479,521
539688,509,515,518
539693,508,533,502
539697,508,506,497
539701,508,477,510
539705,508,486,521
539709,507,524,514
539713,507,535,501
539717,506,504,501
539721,506,474,511
539725,506,493,517
539729,506,533,507
539732,507,533,495
539737,507,497,498
539741,507,476,514
539745,507,502,517
539749,507,534,505
539753,508,524,492
539757,507,485,498
539761,507,477,513
539765,508,510,513
539769,507,536,500
539773,508,517,493
539778,508,481,503
539782,507,482,518
539786,506,519,515
539789,508,538,501
539793,510,509,497
539797,508,473,510
539801,507,484,520
539805,507,521,514
539809,509,533,498
539813,509,504,498
539817,508,480,514
539822,508,497,519
539826,507,531,507
539830,507,532,493
539834,506,493,496
539838,505,473,512
539842,505,498,518
539845,505,530,505
539849,505,522,493
539853,506,486,500
539857,507,475,513
539862,508,509,514
539866,507,536,502
539870,508,517,495
539874,509,480,505
539878,510,479,519
539882,509,517,516
539886,509,537,501
539890,509,512,498
539894,507,478,512
539898,506,486,523
539901,508,526,514
539906,508,535,500
539910,509,503,499
539914,509,477,513
539918,508,495,519
539922,507,530,509
539926,506,530,496
539930,506,493,499
539934,505,474,513
539938,505,501,517
539942,505,535,505
539947,506,526,494
539951,506,488,501
539955,505,478,516
539958,506,510,517
539962,506,537,502
539966,508,519,495
539970,508,486,506
539974,507,489,520
539978,507,525,516
539982,507,543,501
539986,507,515,497
539991,507,483,511
539995,508,496,522
539999,508,535,515
540003,508,543,501
540007,508,508,500
540011,508,481,514
540014,508,501,520
540018,509,537,508
540022,508,536,495
540026,506,500,498
540030,507,482,513
540035,506,510,520
540039,505,540,508
540043,506,532,496
540047,507,497,503
540051,506,488,517
540055,507,522,518
540059,508,546,501
540063,509,527,493
540067,509,491,505
540070,506,493,519
540075,507,528,517
540079,507,545,505
540083,507,519,500
540087,508,489,514
540091,508,500,525
540095,508,536,518
540099,508,545,503
540103,508,513,503
540107,507,483,516
540111,508,502,522
540115,508,538,511
540120,508,536,498
540124,508,503,502
540127,508,485,516
540131,506,510,517
540135,507,543,506
540139,508,533,496
540143,509,494,501
540147,509,484,515
540151,508,519,517
540155,508,547,505
540160,507,527,499
540164,508,490,509
540168,507,490,522
540172,508,527,518
540176,509,546,505
540180,509,520,500
540183,508,487,513
540187,508,497,521
540191,507,534,516
540195,506,543,500
540199,505,513,501
540204,505,485,515
540208,505,502,520
540212,505,542,509
540216,505,540,497
540220,506,502,501
540224,506,485,515
540228,507,511,518
540232,509,543,507
540236,508,531,495
540239,506,494,502
540243,507,485,517
540248,508,518,518
540252,508,544,503
540256,509,526,497
540260,509,491,509
540264,509,491,521
540268,509,526,518
540272,508,541,501
540276,509,516,498
540280,509,486,512
540284,508,495,523
540289,508,533,518
540293,507,542,504
540296,508,510,505
540300,508,483,517
540304,507,501,525
540308,507,537,514
540312,506,535,501
540316,506,500,506
540320,506,480,519
540324,507,507,523
540328,508,541,510
540333,508,532,501
540337,507,495,509
540341,507,488,524
540345,509,522,525
540349,509,545,509
540352,508,524,500
540356,507,491,510
540360,507,491,524
540364,508,526,522
540368,508,540,507
540372,508,514,503
540377,509,483,515
540381,508,494,526
540385,508,530,518
540389,507,539,504
540393,509,507,504
540397,509,480,517
540401,509,498,524
540405,510,534,514
540408,510,531,500
540412,510,495,503
540417,509,479,517
540421,509,503,522
540425,507,536,508
540429,507,528,496
540433,507,492,502
540437,506,484,516
540441,506,516,517
540445,507,542,504
540449,505,522,496
540453,506,486,506
540457,508,486,518
540462,508,520,513
540465,509,538,500
540469,510,511,497
540473,510,481,512
540477,510,492,523
540481,511,528,515
540485,510,537,500
540489,509,506,501
540493,507,480,514
540497,507,499,520
540502,508,535,510
540506,507,532,497
540510,507,493,498
540514,507,476,511
540518,506,503,514
540521,505,535,501
540525,506,524,491
540529,507,488,500
540533,508,480,515
540537,508,512,517
540541,507,537,503
540546,508,520,497
540550,507,483,508
540554,507,485,520
540558,506,522,517
540562,506,537,503
540566,507,510,499
540570,507,479,511
540574,507,492,521
540577,506,530,515
540581,506,537,499
540585,506,503,498
540590,507,478,515
540594,507,500,524
540598,508,534,511
540602,507,530,496
540606,507,494,497
540610,507,478,512
540614,506,506,516
540618,505,538,504
540622,505,526,493
540626,506,488,499
540630,507,479,512
540633,506,510,513
540637,506,537,502
540641,506,520,496
540645,506,484,508
540649,506,487,523
540653,508,522,516
540657,508,537,500
540661,507,511,498
540665,508,482,512
540669,509,494,522
540674,508,530,513
540678,507,537,499
540682,508,502,497
540685,508,476,510
540688,508,495,518
540692,508,532,508
540696,508,533,496
540700,507,497,501
540704,508,478,514
540708,507,508,518
540712,507,537,504
540717,507,525,493
540721,506,489,500
540725,506,481,517
540729,507,513,517
540733,507,540,504
540737,507,521,497
540740,507,485,508
540743,509,486,520
540747,510,522,517
540751,510,541,504
540755,509,514,500
540760,509,482,511
540764,510,492,521
540768,509,528,514
540772,509,536,500
540776,509,504,500
540780,509,480,515
540784,508,498,522
540788,508,535,512
540792,507,533,498
540795,507,496,500
540798,507,481,514
540803,506,508,518
540807,507,537,505
540811,506,525,495
540815,506,489,501
540819,507,482,514
540823,506,514,515
540827,507,538,500
540831,507,519,494
540835,509,485,507
540839,509,486,521
540844,509,522,517
540848,509,540,502
540852,509,513,498
540855,508,479,512
540859,509,489,522
540863,511,528,515
540867,511,537,501
540871,509,503,499
540875,508,478,514
540879,507,498,522
540883,507,533,509
540888,509,531,495
540892,509,496,500
540896,508,477,515
540900,509,503,517
540904,508,537,504
540908,508,525,495
540911,507,487,502
540915,506,480,517
540919,507,512,516
540923,508,536,503
540928,509,516,496
540932,509,482,508
540936,509,484,523
540940,509,519,519
540944,509,535,503
540948,509,508,498
540952,508,478,510
540956,507,489,520
540960,508,526,514
540963,509,534,502
540967,508,502,501
540972,506,477,515
540976,506,496,521
540980,506,533,510
540984,507,529,497
540988,507,492,501
540992,507,474,515
540996,508,502,518
541000,508,535,505
541004,507,525,495
541008,507,485,504
541012,507,480,518
541017,505,514,516
541020,507,539,502
541024,506,517,496
541028,505,480,509
541032,506,485,522
541036,507,522,517
541040,508,538,502
541044,508,511,499
541048,509,480,511
541052,508,490,521
541057,506,526,514
541061,507,536,501
541065,508,505,501
541069,508,480,516
541073,507,500,524
541076,507,536,515
541080,507,530,493
541084,506,494,495
541088,506,478,511
541092,507,504,515
541096,507,535,502
541101,508,523,492
541105,507,488,501
541109,507,481,516
541113,507,513,516
541117,506,537,502
541121,508,518,498
541125,506,483,509
541129,505,487,522
541132,506,522,517
541136,507,535,501
541140,506,510,496
541145,507,481,509
541149,508,492,519
541153,508,528,513
541157,508,538,498
541161,507,505,498
541165,509,481,512
541169,509,501,519
541173,508,536,509
541177,509,534,495
541181,507,498,500
541186,508,483,516
541189,509,510,519
541193,509,539,504
541197,510,526,493
541201,508,490,502
541205,508,483,517
541209,508,515,518
541213,508,537,504
541217,508,520,496
541221,508,487,507
541225,508,490,521
541230,507,524,516
541234,509,541,503
541238,509,515,498
541242,508,484,511
541245,507,495,522
541249,507,528,515
541253,508,535,501
541257,508,500,501
541261,508,477,514
541265,508,498,519
541270,509,532,508
541274,509,529,496
541278,509,495,501
541282,509,478,516
541286,508,504,520
541290,508,535,508
541294,508,523,495
541298,508,488,500
541301,508,482,516
541305,508,514,518
541309,508,538,505
541314,507,517,499
541318,507,484,508
541322,507,486,521
541326,509,527,516
541330,509,539,499
541334,508,505,494
541338,507,476,509
541342,508,491,520
541346,509,530,514
541350,509,535,499
541355,509,502,500
541358,507,480,516
541362,507,500,520
541366,507,533,507
541370,508,531,495
541374,507,496,498
541378,508,478,512
541382,508,504,515
541386,507,536,501
541390,507,524,490
541394,507,488,498
541399,506,480,514
541403,506,514,515
541407,507,539,501
541411,507,519,495
541414,506,482,507
541418,507,483,519
541422,507,518,515
541426,506,535,500
541430,507,508,496
541434,507,479,510
541438,507,494,519
541443,507,532,514
541447,508,539,500
541451,508,502,501
541455,507,477,512
541459,506,498,518
541463,506,535,507
541467,504,534,494
541470,504,497,499
541474,504,479,514
541478,505,507,516
541483,505,539,502
541487,505,526,492
541491,506,488,500
541495,507,479,514
541499,508,512,513
541503,508,536,500
541507,508,515,493
541511,507,480,504
541515,506,484,518
541519,508,521,514
541523,508,538,499
541527,509,511,497
541531,509,483,513
541535,509,490,523
541539,509,527,514
541543,508,536,499
541547,508,503,501
541551,507,479,515
541555,508,499,521
541559,508,534,512
541563,507,531,499
541568,507,495,502
541572,507,480,518
541576,507,507,521
541580,507,536,505
541583,506,523,493
541587,506,487,501
541591,506,480,516
541595,507,512,514
541599,508,536,500
541603,508,517,495
541607,507,482,505
541612,508,484,517
541616,507,519,516
541620,507,536,503
541624,507,509,499
541628,507,479,512
541632,507,491,523
541636,508,530,515
541639,509,535,500
541643,508,501,502
541647,508,476,516
541651,507,497,522
541656,508,531,510
541660,508,528,498
541664,509,495,504
541668,507,480,519
541672,506,505,521
541676,507,534,508
541680,506,523,496
541684,505,488,503
541688,506,482,519
541692,507,517,518
541696,508,541,505
541700,507,519,499
541704,507,482,510
541708,507,485,522
541712,507,521,516
541716,508,538,501
541720,508,512,499
541724,509,481,512
541728,508,493,522
541732,508,531,514
541736,508,537,500
541741,508,506,502
541745,506,481,517
541749,507,503,523
541752,508,539,510
541756,508,537,496
541760,508,499,499
541764,507,483,514
541768,506,512,518
541772,506,543,504
541776,506,530,493
541780,507,490,501
541785,507,481,514
541789,508,516,515
541793,509,541,503
541797,510,521,497
541801,509,485,508
541805,509,486,520
541808,509,524,516
541812,509,541,503
541816,508,513,503
541820,509,482,516
541825,508,494,525
541829,508,530,515
541833,508,536,501
541837,508,503,501
541841,508,480,515
541845,506,502,522
541849,506,538,511
541853,505,535,497
541857,506,493,500
541861,507,478,514
541864,508,507,516
541869,506,537,503
541873,507,525,494
541877,507,488,503
541881,506,481,516
541885,506,514,514
541889,506,539,502
541893,506,519,496
541897,506,485,508
541901,507,488,520
541905,507,526,516
541910,507,542,503
541914,508,514,500
541918,507,484,512
541921,507,496,521
541925,507,534,514
541929,508,541,501
541933,509,505,502
541937,508,479,516
541941,507,499,521
541945,507,534,509
541949,508,532,495
541954,508,496,500
541958,507,480,515
541962,506,509,520
541966,507,539,507
541970,506,527,496
541974,505,490,503
541977,506,482,517
541981,507,516,517
541985,507,541,503
541989,506,519,499
541993,507,483,511
541998,507,487,523
542002,507,524,518
542006,507,541,503
542010,508,513,500
542014,507,483,512
542018,508,494,522
542022,509,529,515
542026,510,535,502
542030,510,501,502
542033,509,477,515
542038,509,497,522
542042,508,532,511
542046,508,530,498
542050,508,494,503
542054,507,478,517
542058,507,506,519
542062,506,535,504
542066,506,525,493
542070,506,491,501
542074,506,483,517
542078,507,515,516
542083,507,538,501
542087,507,518,495
542090,507,483,507
542094,509,487,520
542098,509,524,519
542102,509,539,504
542106,509,511,500
542110,509,482,515
542114,509,493,525
542118,508,528,516
542123,509,535,500
542127,509,501,501
542131,508,478,516
542135,507,499,521
542139,506,535,509
542143,506,530,498
542146,506,492,502
542150,506,476,515
542154,507,503,518
542158,508,534,503
542162,508,523,493
542167,507,488,502
542171,507,481,516
542175,507,515,515
542179,507,539,499
542183,508,517,493
542187,509,483,507
542191,508,486,520
542195,509,522,516
542199,508,537,502
542202,507,508,499
542206,508,477,511
542211,508,488,521
542215,508,525,512
542219,507,532,498
542223,507,501,501
542227,508,478,515
542231,507,498,520
542235,506,534,507
542239,506,531,494
542243,505,494,500
542247,505,479,516
542252,505,506,518
542256,506,536,504
542259,505,523,494
542263,506,487,502
542267,506,483,517
542271,506,517,517
542275,507,539,503
542279,507,518,497
542283,508,484,511
542287,508,487,523
542291,508,521,518
542296,508,538,505
542300,508,510,503
542304,509,480,516
542308,508,493,526
542312,508,530,518
542315,508,535,501
542319,508,501,501
542323,507,480,517
542327,507,502,522
542331,508,535,509
542336,508,531,497
542340,507,495,502
542344,506,480,516
542348,507,509,520
542352,508,540,506
542356,508,527,496
542360,508,488,505
542364,508,480,519
542367,508,515,519
542370,508,539,506
542374,508,516,500
542379,508,481,511
542383,507,485,524
542387,506,523,520
542391,506,538,504
542395,506,510,501
542399,505,480,515
542403,505,491,524
542407,506,529,515
542411,506,536,501
542415,505,502,502
542419,505,480,517
542423,507,501,523
542426,507,533,510
542430,507,532,496
542434,506,496,499
542438,506,480,515
542442,507,509,519
542446,508,537,504
542450,507,524,497
542454,507,486,505
542458,507,480,520
542462,507,515,520
542467,507,538,505
542471,507,516,498
542475,509,480,510
542478,508,483,524
542481,509,521,519
542485,510,536,505
542489,509,507,504
542493,508,476,518
542497,507,488,528
542501,507,526,520
542505,507,530,508
542510,507,493,508
542514,507,469,522
542518,506,490,527
542522,506,524,515
542526,508,518,502
542530,507,481,504
542533,506,469,519
542536,505,498,521
542540,505,526,506
542544,505,515,496
542548,505,478,504
542553,507,471,520
542557,507,503,518
542561,507,528,505
542565,507,505,499
542569,508,471,512
542573,508,478,525
542577,509,512,518
542581,509,528,502
542585,509,498,499
542588,509,465,514
542592,508,478,523
542596,508,520,515
542600,506,533,503
542604,506,494,505
542608,505,467,519
542612,505,492,525
542616,505,529,512
542620,505,526,501
542624,505,488,506
542628,506,473,520
542632,505,502,522
542637,505,532,506
542641,506,515,495
542644,507,476,506
542648,508,472,521
542652,509,511,521
542656,509,535,507
542660,509,511,501
542664,508,474,511
542668,509,481,523
542672,510,520,519
542676,509,537,506
542681,508,507,503
542685,508,476,516
542689,509,489,523
542693,509,527,515
542697,509,533,502
542700,509,498,504
542704,508,473,516
542708,507,495,521
542712,506,533,510
542716,506,530,498
542721,506,495,503
542725,506,479,515
542729,506,510,517
542733,507,542,503
542737,507,528,492
542741,506,489,502
542745,507,481,516
542749,508,517,516
542753,509,541,502
542756,509,522,497
542760,510,486,508
542765,509,490,521
542769,510,526,517
542773,510,542,503
542777,509,513,498
542781,509,483,513
542785,509,497,526
542789,510,537,517
542793,510,541,498
542797,508,506,499
542801,508,480,512
542806,507,502,517
542810,507,541,504
542813,508,537,491
542817,509,504,496
542821,507,491,509
542825,507,512,514
542829,507,543,506
542833,507,536,498
542837,507,496,508
542841,506,490,522
542845,507,547,512
542850,507,571,492
542854,508,523,497
542858,508,495,512
542862,508,504,521
542866,508,529,519
542869,507,543,500
542873,509,530,490
542877,508,494,512
542881,509,500,534
542885,509,535,516
542889,509,536,486
542894,509,489,479
542898,509,490,511
542902,509,567,508
542906,508,560,505
542910,507,522,507
542914,506,486,513
542918,506,487,533
542922,506,521,531
542925,507,548,494
542929,508,533,485
542934,508,507,510
542938,507,490,527
542942,508,513,521
542946,509,541,505
542950,509,513,514
542954,509,479,525
542958,510,490,532
542962,509,528,546
542966,509,544,511
542970,509,526,507
542974,509,485,526
542979,509,502,538
542982,509,566,558
542986,509,583,548
542990,508,498,510
542994,507,457,511
542998,507,494,534
543002,508,532,507
543006,509,548,519
543010,508,512,535
543014,507,491,573
543019,507,516,534
543023,507,530,483
543027,506,511,468
543031,506,501,504
543035,507,491,534
543038,508,524,534
543042,509,598,577
543046,508,558,549
543050,507,484,508
543054,506,473,513
543058,506,515,509
543063,507,552,494
543067,507,551,527
543071,508,520,558
543075,509,478,564
543079,510,501,527
543083,509,559,510
543087,508,542,524
543091,508,495,517
543094,509,527,540
543098,510,672,619
543102,510,599,548
543107,509,452,485
543111,508,480,536
543115,508,512,497
543119,508,508,440
543123,508,509,522
543127,508,530,559
543131,509,507,512
543135,508,482,446
543139,509,532,440
543143,509,513,476
543148,509,530,529
543151,509,494,515
543155,509,488,524
543159,507,481,454
543163,507,495,466
543167,508,509,498
543171,509,571,597
543175,509,509,465
543179,509,523,437
543183,508,527,496
543187,506,462,469
543192,506,505,513
543196,507,571,539
543200,509,586,512
543204,508,508,503
543207,507,399,477
543211,506,432,465
543215,506,503,488
543219,506,680,669
543223,506,547,526
543227,506,405,439
543232,506,432,422
543236,506,544,461
543240,506,499,498
543244,506,455,522
543248,506,508,516
543252,507,542,532
543256,507,534,470
543260,507,489,458
543263,506,552,547
543267,506,561,577
543271,507,534,568
543276,507,469,453
543280,506,445,454
543284,506,411,461
543288,505,483,503
543292,505,536,536
543296,507,510,519
543300,508,482,494
543304,507,482,521
543308,506,484,536
543312,506,495,445
543316,506,498,439
543320,507,500,457
543324,507,565,544
543328,508,567,625
543332,508,564,531
543336,509,548,472
543340,509,470,463
543344,508,490,560
543348,507,573,527
543352,507,523,461
543356,507,442,435
543361,507,403,467
543365,508,434,501
543369,508,508,552
543373,508,555,593
543376,507,467,500
543380,507,474,451
543384,507,551,496
543388,507,544,501
543392,507,551,514
543396,506,534,472
543400,508,493,465
543405,509,508,511
543409,509,519,473
543413,507,531,476
543417,505,518,548
543421,506,483,519
543425,508,511,496
543429,507,583,592
543432,507,587,556
543436,506,436,457
543440,506,417,511
543444,507,470,460
543449,508,549,537
543453,509,501,502
543457,509,445,497
543461,508,477,483
543465,507,531,457
543469,507,550,441
543473,507,541,476
543477,508,492,523
543481,508,506,536
543485,507,664,587
543489,507,630,590
543493,507,400,481
543497,507,379,465
543501,507,464,507
543505,508,510,554
543509,508,465,497
543513,507,476,514
543517,508,453,458
543521,508,504,471
543525,508,599,531
543529,507,590,518
543534,508,423,440
543538,508,427,495
543542,508,478,489
543545,508,567,553
543549,506,500,494
543553,506,484,472
543557,507,537,532
543561,508,569,532
543565,509,538,504
543569,509,451,525
543574,508,431,490
543578,508,453,529
543582,507,527,513
543586,507,488,461
543590,507,465,486
543594,507,456,517
543598,508,496,477
543601,508,558,499
543605,507,572,512
543609,506,489,504
543613,506,572,596
543618,508,582,553
543622,508,482,447
543626,507,520,506
543630,507,472,529
543634,507,473,524
543638,509,475,477
543642,510,489,452
543646,509,552,593
543650,508,530,550
543654,509,418,469
543657,509,464,438
543662,508,511,480
543666,508,488,544
543670,508,462,476
543674,508,487,465
543678,509,557,490
543682,508,520,467
543686,507,508,494
543690,507,471,499
543694,506,488,493
543698,507,568,538
543703,507,545,575
543707,508,509,538
543711,508,459,484
543714,508,535,511
543718,506,546,538
543722,507,453,471
543726,508,411,488
543730,508,467,559
543734,508,524,495
543738,508,554,437
543742,509,517,472
543747,509,460,474
543751,509,513,552
543755,508,525,496
543759,510,539,481
543763,510,469,465
543767,508,485,513
543770,507,556,557
543774,506,524,524
543778,507,467,468
543782,506,436,487
543787,506,456,566
543791,505,493,510
543795,506,495,477
543799,507,510,439
543803,507,479,478
543807,508,525,577
543811,509,572,561
543815,509,519,459
543819,509,503,471
543823,508,469,526
543826,507,477,473
543831,508,498,472
543835,509,545,493
543839,509,562,521
543843,508,459,483
543847,506,464,476
543851,507,575,503
543855,507,531,484
543859,506,497,512
543863,506,457,520
543867,506,515,572
543872,507,501,574
543876,507,508,445
543880,507,504,514
543883,506,457,483
543887,505,516,491
543891,505,548,514
543895,505,567,530
543899,506,480,467
543903,507,449,456
543907,507,481,462
543911,507,526,474
543916,506,518,484
543920,507,537,529
543924,508,538,563
543928,508,632,658
543932,508,585,564
543936,507,438,457
543939,507,404,441
543943,506,469,490
543947,507,543,510
543951,507,508,476
543955,507,468,546
543960,507,461,522
543964,506,479,459
543968,506,510,453
543972,506,515,457
543976,507,523,538
543980,507,575,591
543984,507,530,497
543988,507,499,464
543992,507,486,466
543995,508,516,522
544000,507,469,507
544004,507,507,514
544008,509,538,535
544012,508,523,528
544016,508,518,568
544020,508,565,618
544024,508,515,490
544028,507,467,422
544032,507,456,462
544036,506,478,494
544040,507,491,509
544045,508,537,525
544048,508,553,494
544051,506,489,488
544055,506,489,496
544059,506,542,555
544063,507,537,524
544067,506,591,518
544071,506,560,531
544075,506,459,556
544079,507,457,548
544083,507,477,458
544088,508,498,442
544092,507,475,516
544096,507,444,470
544100,506,496,545
544104,507,531,512
544107,508,517,435
544111,510,551,495
544115,510,580,557
544119,509,601,681
544123,508,512,516
544128,507,452,418
544132,507,455,450
544136,507,478,479
544140,507,585,518
544144,508,586,547
544148,507,534,520
544152,507,438,472
544156,507,522,537
544160,506,621,649
544163,507,505,528
544167,507,402,413
544172,507,404,421
544176,506,499,512
544180,506,499,509
544184,505,502,445
544188,506,483,473
544192,506,472,499
544196,506,508,492
544200,507,545,492
544204,508,555,541
544208,509,532,528
544212,509,522,546
544217,508,567,497
544220,507,656,536
544224,507,503,506
544228,507,417,487
544232,508,432,498
544236,508,505,538
544240,507,511,529
544244,507,473,461
544248,507,511,539
544252,507,585,571
544257,506,579,505
544261,507,479,448
544265,506,433,451
544269,506,441,486
544273,505,504,530
544276,506,577,519
544280,506,511,472
544284,507,470,476
544288,508,489,511
544292,506,566,551
544296,505,527,495
544301,505,500,494
544305,506,471,525
544309,506,459,493
544313,505,543,511
544317,505,598,531
544321,506,475,477
544325,506,435,504
544329,506,463,500
544332,507,534,526
544336,507,524,511
544340,507,491,477
544345,507,518,544
544349,507,572,576
544353,507,546,531
544357,507,488,454
544361,507,480,474
544365,507,452,500
544369,507,492,492
544373,507,546,528
544377,507,519,480
544381,507,533,511
544386,506,468,507
544389,506,511,527
544393,507,531,499
544397,508,488,480
544401,508,460,496
544405,507,488,517
544409,508,579,591
544413,508,573,523
544417,506,480,504
544421,507,453,481
544425,508,467,503
544430,509,537,550
544434,510,534,486
544438,509,496,487
544442,509,476,502
544445,510,493,498
544449,509,563,538
544453,508,597,533
544457,507,499,502
544461,506,462,483
544465,506,480,492
544470,506,511,482
544474,506,524,492
544478,507,549,592
544482,507,472,548
544486,507,507,509
544490,508,535,460
544494,509,485,451
544498,509,457,489
544501,509,473,524
544505,509,519,502
544509,509,540,490
544514,509,501,484
544518,509,467,496
544522,509,489,530
544526,509,537,522
544530,509,549,492
544534,509,526,495
544538,509,496,527
544542,509,533,554
544546,508,519,495
544550,509,521,493
544555,510,523,528
544558,509,466,499
544562,508,487,520
544566,508,525,504
544570,507,543,505
544574,506,482,524
544578,506,458,499
544582,507,506,481
544586,506,563,516
544590,508,521,498
544594,509,477,496
544599,508,485,513
544603,510,524,508
544607,512,549,490
544611,510,567,532
544614,509,480,513
544618,510,463,497
544622,510,512,503
544626,509,527,499
544630,508,506,535
544634,508,502,550
544638,507,513,556
544643,508,554,536
544647,509,516,496
544651,508,483,478
544655,507,516,518
544659,507,516,514
544663,507,513,484
544667,508,501,483
544670,507,482,489
544674,508,477,498
544678,510,522,501
544683,509,574,522
544687,508,537,514
544691,508,477,511
544695,508,465,512
544699,507,517,511
544703,507,565,510
544707,509,526,547
544711,509,474,559
544715,508,491,509
544719,508,506,477
544723,508,524,481
544727,507,516,521
544731,505,466,505
544735,504,484,513
544739,505,530,512
544743,505,537,489
544747,505,497,520
544751,505,494,545
544755,505,513,534
544759,506,559,504
544763,506,575,534
544768,507,521,559
544772,508,470,525
544776,507,468,470
544780,507,526,489
544783,507,515,528
544787,508,488,509
544791,509,480,492
544795,509,521,478
544799,508,533,500
544803,508,534,532
544807,508,570,567
544812,508,503,544
544816,508,486,475
544820,509,491,465
544824,509,470,469
544828,508,471,497
544832,507,525,520
544836,508,543,503
544839,508,545,505
544843,507,545,540
544847,505,473,512
544851,505,492,539
544856,506,517,512
544860,506,536,502
544864,506,485,499
544868,505,485,502
544872,506,520,510
544876,506,554,505
544880,505,520,542
544884,505,491,528
544888,506,467,498
544892,507,496,487
544896,506,520,490
544900,505,506,489
544904,506,486,502
544908,507,514,513
544912,508,547,541
544916,508,560,528
544920,508,551,565
544924,507,514,553
544928,506,480,509
544932,507,495,480
544936,507,500,477
544941,507,490,489
544945,508,492,539
544949,509,502,508
544952,509,522,510
544956,510,521,477
544960,509,501,498
544964,508,490,525
544968,507,540,536
544972,508,551,487
544976,508,511,487
544980,508,480,506
544985,508,490,528
544989,508,544,559
544993,507,564,534
544997,507,496,495
545001,507,451,496
545005,508,501,518
545008,510,559,540
545012,509,541,489
545016,507,486,493
545020,506,444,493
545025,507,472,512
545029,507,518,518
545033,506,527,486
545037,505,507,519
545041,505,474,514
545045,505,522,513
545049,506,529,491
545053,507,556,508
545057,506,536,551
545061,504,461,520
545064,505,519,537
545069,506,522,492
545073,505,506,480
545077,505,516,511
545081,506,487,521
545085,507,530,512
545089,507,548,519
545093,508,491,498
545097,508,482,534
545101,508,517,537
545105,507,530,554
545110,506,497,464
545114,507,472,462
545118,507,464,488
545121,506,491,500
545125,508,537,518
545129,508,522,520
545133,509,489,478
545137,508,494,504
545141,508,544,536
545145,509,590,530
545149,509,527,515
545154,508,499,505
545158,507,449,497
545162,508,479,489
545166,508,520,489
545170,509,510,503
545174,509,498,544
545177,509,495,553
545181,509,537,538
545185,509,572,524
545189,508,536,491
545193,506,457,491
545198,507,480,501
545202,508,549,519
545206,508,555,515
545210,509,480,484
545214,507,451,497
545218,508,500,522
545222,508,580,540
545226,507,555,525
545230,507,457,475
545233,507,442,476
545238,506,486,492
545242,506,561,520
545246,508,533,518
545250,507,475,515
545254,507,455,511
545258,508,508,512
545262,508,539,497
545266,507,545,514
545270,507,498,541
545274,507,472,490
545278,508,532,505
545283,509,563,509
545287,509,502,488
545290,509,482,499
545294,509,514,514
545298,509,508,501
545302,510,536,523
545306,511,516,516
545310,509,476,554
545314,508,496,527
545318,508,552,504
545323,509,520,482
545327,508,483,487
545331,507,480,528
545335,507,481,511
545339,506,507,483
545343,506,520,475
545346,507,516,543
545350,506,481,517
545354,507,505,487
545358,508,547,496
545362,509,497,494
545367,510,465,487
545371,508,487,509
545375,508,531,527
545379,507,556,510
545383,508,543,515
545387,507,487,539
545391,506,484,523
545395,507,546,524
545399,507,515,514
545402,507,475,479
545406,507,481,502
545411,507,500,552
545415,507,520,514
545419,506,513,468
545423,506,478,466
545427,506,486,518
545431,506,523,529
545435,507,524,491
545439,509,501,469
545443,508,473,478
545447,508,479,488
545452,507,515,502
545456,508,537,492
545459,507,515,487
545463,508,491,512
545467,508,515,524
545471,509,537,528
545475,508,534,505
545479,508,526,511
545483,509,493,523
545487,509,483,519
545491,509,535,522
545496,509,527,512
545500,508,495,558
545504,507,472,499
545508,507,488,487
545512,507,524,499
545515,508,518,499
545519,508,486,476
545523,508,523,525
545527,509,536,534
545531,507,522,493
545536,507,511,495
545540,508,478,495
545544,508,478,513
545548,508,531,513
545552,509,547,503
545556,508,529,527
545560,508,466,517
545564,509,477,509
545568,509,525,509
545571,508,568,536
545575,509,493,492
545580,509,464,490
545584,508,492,529
545588,508,531,512
545592,508,541,496
545596,508,511,492
545600,506,494,504
545604,505,479,510
545608,505,510,520
