449799,508,514,491
449803,507,500,505
449807,508,505,518
449811,508,524,511
449814,507,530,496
449818,508,514,497
449822,508,497,510
449826,507,504,516
449830,507,523,503
449835,507,525,489
449839,507,509,493
449843,507,499,509
449847,506,512,515
449851,506,529,504
449855,506,525,494
449859,507,504,502
449863,509,497,516
449867,507,512,518
449870,508,527,504
449874,508,520,495
449879,508,500,504
449883,509,497,517
449887,510,514,514
449891,509,527,499
449895,509,515,494
449899,508,498,506
449903,508,501,515
449907,508,518,507
449911,509,523,494
449915,509,509,495
449920,509,495,513
449924,509,502,519
449927,508,518,506
449931,507,521,492
449935,507,505,497
449939,507,495,513
449943,507,508,518
449947,508,521,504
449951,508,517,493
449955,508,499,502
449959,509,494,519
449964,508,508,518
449968,508,521,503
449972,508,514,496
449976,508,498,509
449980,507,497,524
449983,507,515,519
449987,507,524,503
449991,507,510,498
449995,506,494,511
449999,505,497,521
450003,505,518,514
450008,507,522,498
450012,507,505,498
450016,507,493,513
450020,505,503,520
450024,506,521,509
450028,507,522,497
450032,506,505,503
450036,507,495,517
450039,507,506,520
450043,507,522,507
450048,508,519,498
450052,508,502,508
450056,507,500,523
450060,508,516,522
450064,509,530,505
450068,509,521,499
450072,510,502,511
450076,510,502,523
450080,510,519,517
450084,510,527,501
450088,509,516,500
450093,509,502,515
450096,509,507,523
450100,508,525,512
450104,507,527,495
450108,506,511,497
450112,507,498,514
450116,507,509,521
450120,506,525,508
450124,506,525,495
450128,506,507,501
450132,506,499,514
450137,507,511,517
450141,506,526,503
450145,506,524,496
450149,505,506,507
450152,506,501,522
450156,507,515,518
450160,508,525,501
450164,509,515,496
450168,509,497,508
450172,508,498,518
450177,509,517,511
450181,508,525,494
450185,508,512,494
450189,508,498,508
450193,508,501,516
450197,508,518,505
450201,508,521,491
450205,508,506,492
450208,505,494,508
450212,507,504,515
450216,509,521,504
450221,508,520,491
450225,509,502,497
450229,508,493,513
450233,507,506,515
450237,507,521,502
450241,506,517,494
450245,507,500,504
450249,507,496,518
450253,507,511,517
450257,506,521,500
450262,506,510,495
450265,507,495,508
450269,508,497,520
450273,509,515,513
450277,509,522,497
450281,508,507,495
450285,507,492,509
450289,507,499,517
450293,508,516,506
450297,508,520,493
450301,508,507,496
450306,507,493,510
450310,507,502,514
450314,506,519,502
450318,507,518,491
450321,506,501,498
450325,507,494,515
450329,508,508,518
450333,509,521,504
450337,509,515,496
450341,508,498,506
450345,507,495,520
450350,507,509,516
450354,507,521,502
450358,508,512,498
450362,507,496,510
450366,507,499,521
450370,507,516,514
450373,507,523,498
450376,507,507,496
450380,506,492,510
450384,506,500,521
450388,507,518,510
450393,509,519,494
450397,509,503,496
450401,508,494,512
450405,507,505,517
450409,506,522,503
450413,506,521,494
450417,505,502,501
450421,506,493,515
450425,506,507,516
450428,507,521,502
450432,506,517,494
450436,507,500,504
450440,508,499,519
450444,507,516,516
450448,507,528,501
450452,507,517,497
450456,507,501,511
450460,508,503,524
450464,509,520,517
450468,508,529,501
450472,507,514,498
450477,509,500,513
450481,509,507,520
450484,509,523,509
450487,507,525,496
450491,507,508,498
450495,507,497,515
450499,506,508,520
450503,507,524,509
450507,507,521,498
450511,509,503,504
450515,509,496,517
450520,508,510,518
450524,508,525,504
450528,508,517,497
450532,509,499,508
450536,510,498,523
450539,510,515,518
450542,510,526,502
450546,509,513,496
450550,508,497,511
450554,507,498,523
450558,508,516,514
450563,507,523,500
450567,507,507,499
450571,508,494,514
450575,508,502,522
450579,508,520,507
450583,506,521,492
450587,506,504,496
450591,506,494,510
450594,506,505,514
450597,506,522,501
450601,507,520,491
450606,506,501,498
450610,507,493,514
450614,507,509,515
450618,506,525,502
450622,505,520,496
450626,506,502,508
450630,506,500,519
450634,506,516,516
450638,507,528,502
450642,508,518,498
450647,509,501,511
450651,509,505,522
450655,509,523,515
450659,508,526,500
450663,508,511,500
450667,507,497,515
450671,507,504,521
450675,507,522,511
450679,508,523,496
450683,508,506,500
450688,507,494,516
450692,506,504,518
450696,506,522,504
450700,508,520,495
450704,507,503,503
450707,506,495,516
450711,506,511,516
450715,508,523,502
450719,509,516,496
450723,508,502,509
450727,509,500,523
450732,508,514,516
450736,508,524,501
450740,508,513,499
450744,509,498,512
450748,510,501,523
450752,511,519,515
450756,511,522,502
450760,510,509,501
450763,507,500,514
450767,506,505,522
450771,505,517,508
450776,506,519,494
450780,506,503,495
450784,505,495,511
450788,506,510,515
450792,506,526,501
450796,507,513,491
450800,508,500,502
450804,507,503,508
450808,507,510,517
450812,507,518,504
450817,508,512,501
450820,509,498,515
450823,510,499,525
450827,509,516,519
450831,508,526,502
450835,507,510,498
450839,507,495,511
450843,507,500,522
450847,509,516,513
450851,508,520,500
450855,507,505,499
450860,508,492,513
450864,508,502,520
450868,508,519,506
450872,507,519,492
450876,506,502,496
450879,506,495,510
450883,507,505,515
450887,507,518,507
450891,506,517,501
450895,507,500,507
450899,508,492,520
450904,508,509,520
450908,509,525,507
450912,508,515,501
450916,508,496,513
450920,509,496,521
450924,509,515,515
450928,508,523,501
450932,508,510,503
450935,507,499,520
450939,507,503,529
450944,508,517,519
450948,509,522,503
450952,509,507,503
450956,509,496,515
450960,509,501,519
450964,508,517,507
450968,507,520,494
450972,506,505,498
450976,506,494,517
450980,506,506,519
450984,505,520,503
450989,505,516,494
450992,507,500,505
450996,507,498,520
451000,506,513,515
451004,506,524,502
451008,506,514,494
451012,505,496,504
451016,506,495,516
451020,507,513,512
451024,507,526,500
451028,508,513,495
451033,508,495,511
451037,508,499,523
451041,509,518,514
451044,509,524,498
451047,509,508,498
451051,509,496,513
451055,508,505,519
451059,507,522,508
451063,506,524,494
451067,505,505,501
451072,506,491,515
451076,507,503,516
451080,508,521,503
451084,507,518,494
451088,507,499,503
451092,507,495,517
451096,508,512,516
451099,507,524,502
451102,507,513,496
451106,507,496,510
451110,507,499,523
451115,507,519,518
451119,507,529,503
451123,507,513,502
451127,508,496,513
451131,509,502,521
451135,509,520,513
451139,510,523,498
451143,510,508,501
451147,509,495,516
451151,510,504,520
451154,509,522,507
451158,509,521,494
451162,508,503,501
451166,507,494,516
451170,508,511,516
451174,508,527,503
451178,508,522,492
451182,508,503,502
451186,508,500,516
451190,508,516,515
451194,507,530,501
451198,509,514,496
451203,509,496,508
451207,509,498,519
451210,507,517,513
451213,508,524,498
451217,508,511,497
451221,508,497,511
451225,507,502,520
451229,507,522,510
451233,507,527,496
451237,507,509,499
451241,507,495,514
451246,509,507,520
451250,510,523,508
451254,510,521,495
451258,508,502,501
451262,507,494,516
451266,507,509,518
451269,507,524,502
451273,507,520,493
451277,506,504,505
451281,506,502,519
451286,507,518,516
451290,508,528,500
451294,508,518,495
451298,507,502,508
451302,507,503,520
451306,508,519,513
451310,509,527,498
451314,508,513,498
451318,508,495,512
451322,508,499,519
451325,508,517,509
451330,507,521,497
451334,508,504,499
451338,507,493,513
451342,508,504,517
451346,508,522,505
451350,508,520,494
451354,507,503,499
451358,507,493,512
451362,507,506,512
451366,508,522,499
451371,509,516,491
451375,508,500,502
451379,508,500,518
451382,509,516,516
451386,508,524,501
451390,507,510,497
451394,509,493,509
451398,509,497,521
451402,509,516,514
451406,508,524,499
451410,508,509,499
451415,508,494,514
451419,508,499,522
451423,508,517,511
451427,508,521,497
451431,507,506,502
451435,505,496,517
451438,505,504,519
451442,505,521,504
451446,506,520,494
451450,505,501,503
451454,505,493,516
451459,505,508,517
451463,506,523,503
451467,506,514,495
451471,505,496,504
451475,504,493,518
451479,505,511,514
451483,506,523,500
451487,508,513,498
451491,506,499,512
451494,507,501,522
451499,507,517,515
451503,508,524,502
451507,506,508,500
451511,505,496,515
451515,505,505,523
451519,505,522,512
451523,506,522,497
451527,506,506,499
451531,506,497,515
451535,507,508,516
451539,506,525,503
451544,507,521,491
451548,507,503,498
451551,507,496,514
451555,506,509,515
451559,506,520,500
451563,506,512,492
451567,507,499,504
451571,508,501,518
451575,508,517,515
451579,509,527,499
451584,510,516,497
451588,510,499,510
451592,510,503,521
451596,510,519,512
451600,510,524,500
451604,509,511,500
451607,508,498,517
451611,508,506,524
451615,508,521,513
451619,508,521,499
451623,508,506,503
451628,509,496,518
451632,508,507,521
451636,508,523,504
451640,507,520,494
451644,508,502,502
451648,509,498,517
451652,509,513,516
451656,508,526,500
451660,508,517,492
451663,508,500,503
451667,508,500,517
451672,507,515,515
451676,506,524,500
451680,505,514,498
451684,506,499,514
451688,507,502,523
451692,508,519,514
451696,508,525,499
451700,509,510,499
451704,508,498,516
451708,509,508,522
451713,509,525,511
451716,509,526,499
451719,508,507,503
451723,507,495,516
451727,507,507,519
451731,507,523,504
451735,508,521,496
451739,507,503,505
451743,507,497,519
451747,507,513,519
451751,506,525,503
451756,505,518,496
451760,506,501,508
451764,507,499,522
451768,508,516,517
451771,509,528,503
451774,510,516,502
451778,509,499,515
451782,508,503,521
451786,508,521,512
451790,509,526,499
451794,508,510,499
451799,508,497,513
451803,508,504,522
451807,509,518,511
451811,509,520,499
451815,508,507,505
451819,508,496,517
451823,508,506,518
451826,508,523,504
451829,509,518,491
451833,508,501,500
451837,508,498,513
451842,508,512,511
451846,509,526,499
451850,510,519,492
451854,509,503,503
451858,509,503,516
451862,508,516,512
451866,508,525,497
451870,507,515,495
451874,507,501,509
451878,507,502,519
451883,506,518,510
451886,507,527,498
451890,507,517,496
451894,508,499,511
451898,508,502,517
451902,508,519,506
451906,507,518,494
451910,508,502,500
451914,508,494,515
451918,507,506,514
451922,507,522,502
451927,507,519,493
451931,506,501,500
451935,506,492,510
451939,506,506,508
451942,505,519,497
451946,506,511,493
451950,508,500,506
451954,508,506,522
451958,508,519,518
451962,508,523,498
451966,507,508,495
451971,508,496,508
451975,508,502,517
451979,508,515,511
451983,509,523,498
451987,509,509,501
451991,510,496,516
451995,510,510,521
451999,510,529,507
452003,510,532,492
452007,509,501,503
452012,508,499,516
452016,509,533,504
452020,510,529,501
452024,509,511,503
452028,508,492,513
452032,508,493,523
452036,508,512,519
452040,508,535,502
452044,507,514,498
452048,506,494,514
452051,506,502,529
452055,507,514,522
452059,508,525,521
452063,508,508,510
452067,508,485,512
452071,508,506,506
452075,508,539,496
452079,508,527,499
452083,508,513,507
452087,507,492,528
452091,507,501,532
452096,506,527,516
452100,506,520,505
452104,507,497,505
452107,506,492,509
452110,507,514,506
452114,507,526,497
452118,506,520,493
452122,505,519,512
452126,505,502,535
452130,505,512,525
452134,506,521,510
452139,506,508,496
452143,506,493,503
452147,505,506,517
452151,507,525,516
452155,508,529,502
452159,507,520,511
452162,507,507,521
452165,507,499,541
452169,507,531,529
452173,507,529,496
452177,508,508,504
452182,508,506,539
452186,508,503,532
452190,508,521,513
452194,508,539,517
452198,508,530,539
452202,508,490,530
452206,508,514,529
452210,508,534,515
452214,509,528,508
452217,508,515,519
452220,508,526,544
452225,508,519,524
452229,509,545,493
452233,508,541,512
452237,507,514,544
452241,507,528,560
452245,507,528,533
452249,506,509,488
452253,506,506,520
452257,507,515,551
452261,507,525,544
452265,508,516,505
452270,508,504,491
452273,509,496,523
452276,508,478,544
452280,509,480,509
452284,509,507,477
452288,509,515,472
452292,509,522,525
452296,509,541,597
452300,507,548,560
452304,506,514,483
452308,505,472,457
452313,504,473,487
452317,504,510,523
452321,506,555,550
452325,507,531,501
452328,507,508,532
452332,506,484,541
452336,507,460,501
452340,508,478,474
452344,507,503,488
452348,508,519,531
452353,507,530,571
452357,507,497,512
452361,507,512,496
452365,507,521,514
452369,508,505,506
452373,508,513,526
452377,509,545,564
452381,510,587,645
452384,510,511,522
452388,509,456,449
452392,508,452,487
452397,509,503,557
452401,509,540,569
452405,508,560,559
452409,509,501,528
452413,509,465,502
452417,509,486,512
452421,508,501,490
452425,507,562,565
452429,507,568,643
452433,507,466,510
452438,507,478,501
452441,508,509,479
452445,509,527,555
452449,509,480,554
452453,509,495,509
452457,508,501,524
452461,507,547,544
452465,508,513,518
452469,508,506,494
452473,508,509,545
452477,507,542,556
452482,507,571,569
452486,507,453,487
452490,508,420,439
452494,508,481,473
452497,509,561,510
452501,508,517,485
452505,508,460,494
452509,508,538,558
452513,509,546,571
452517,509,474,468
452521,508,502,488
452526,507,543,497
452530,508,553,561
452534,509,503,525
452538,509,435,408
452542,510,490,442
452546,509,556,601
452550,509,575,622
452553,508,439,434
452557,509,429,374
452561,509,547,485
452566,507,586,625
452570,507,522,552
452574,507,470,438
452578,508,452,432
452582,508,449,425
452586,508,499,449
452590,507,594,596
452594,506,492,507
452598,506,442,408
452602,506,518,455
452606,506,608,566
452610,506,528,559
452614,507,487,445
452618,506,527,554
452622,506,440,560
452626,505,456,490
452630,506,513,518
452634,507,495,426
452638,507,471,431
452642,508,459,508
452646,508,533,500
452651,506,561,502
452655,507,521,480
452659,507,485,478
452663,506,511,515
452666,506,529,491
452670,506,497,465
452674,507,476,447
452678,508,472,468
452682,508,494,493
452686,508,528,521
452690,509,521,528
452695,509,502,528
452699,508,469,470
452703,508,486,476
452707,508,521,526
452711,508,511,502
452715,506,533,486
452719,506,533,491
452722,507,544,500
452726,508,455,460
452730,509,527,477
452734,509,478,523
452739,509,511,575
452743,509,482,486
452747,510,465,425
452751,510,512,476
452755,509,517,518
452759,510,477,484
452763,509,463,439
452767,508,542,508
452771,507,528,532
452775,507,496,551
452779,508,504,523
452783,508,496,494
452787,507,492,437
452791,507,458,431
452795,507,497,512
452799,507,609,548
452803,507,513,507
452807,507,466,464
452811,507,453,458
452815,508,520,565
452819,507,549,626
452824,507,508,461
452828,507,489,382
452832,507,494,426
452835,506,503,490
452839,505,536,600
452843,504,532,570
452847,504,490,449
452851,505,541,475
452855,505,538,548
452859,505,465,499
452864,507,472,453
452868,507,529,536
452872,506,502,483
452876,506,543,545
452880,507,502,508
452884,507,496,442
452888,507,495,483
452891,507,500,462
452895,506,520,520
452899,506,540,535
452903,506,545,523
452908,506,513,569
452912,507,491,518
452916,506,461,411
452920,507,534,416
452924,508,541,527
452928,508,485,495
452932,509,481,502
452936,508,525,514
452940,508,557,547
452944,509,561,551
452947,509,499,476
452952,509,432,445
452956,509,458,476
452960,508,582,598
452964,507,578,548
452968,506,582,543
452972,506,434,448
452976,505,408,404
452980,506,469,479
452984,504,560,561
452988,503,503,499
452993,504,453,453
452997,504,469,425
453001,507,509,442
453004,509,587,559
453008,507,556,527
453012,507,538,499
453016,508,487,491
453020,509,517,527
453024,510,517,573
453028,509,518,598
453032,508,484,482
453037,507,462,420
453041,508,522,452
453045,508,536,520
453049,508,564,575
453053,508,460,461
453057,507,558,567
453060,507,525,507
453064,507,459,471
453068,507,533,540
453072,508,449,478
453076,508,456,455
453081,507,519,494
453085,507,562,651
453089,507,503,490
453093,507,470,398
453097,506,512,441
453101,505,557,603
453105,507,507,481
453109,507,527,505
453113,508,556,576
453116,508,489,480
453121,507,520,498
453125,507,498,542
453129,507,488,504
453133,508,519,487
453137,509,518,456
453141,509,478,503
453145,509,553,574
453149,509,496,520
453153,508,542,561
453157,508,492,450
453161,508,497,473
453166,509,475,480
453170,509,532,554
453173,508,492,454
453177,508,500,466
453181,508,514,546
453185,506,494,510
453189,507,556,529
453193,507,556,561
453197,506,457,424
453201,506,485,436
453206,507,580,544
453210,507,525,541
453214,507,496,506
453218,507,478,467
453222,507,524,557
453226,507,653,633
453229,508,505,534
453233,509,485,486
453237,511,405,408
453241,510,429,450
453245,509,508,538
453250,508,661,615
453254,508,492,441
453258,507,416,420
453262,507,455,461
453266,506,538,531
453270,507,537,559
453274,507,596,599
453278,507,461,438
453282,509,441,435
453285,510,504,467
453289,509,556,510
453294,508,502,473
453298,507,495,529
453302,507,567,662
453306,507,550,559
453310,506,476,417
453314,506,458,438
453318,507,463,506
453322,507,551,511
453326,507,643,615
453330,507,485,447
453335,507,444,456
453339,506,456,499
453342,506,528,543
453346,507,548,533
453350,507,510,449
453354,507,497,460
453358,506,491,487
453362,507,580,557
453366,506,592,643
453370,507,438,495
453374,508,421,422
453379,508,447,463
453383,508,523,482
453387,508,599,620
453391,507,499,452
453395,506,466,432
453398,506,452,467
453402,506,489,447
453406,507,557,511
453410,509,582,581
453414,509,604,609
453419,509,482,516
453423,509,459,442
453427,509,516,490
453431,508,485,504
453435,508,514,520
453439,509,479,486
453443,509,480,508
453447,509,518,486
453451,508,487,505
453454,507,462,469
453458,506,506,488
453463,505,563,541
453467,506,578,649
453471,507,444,438
453475,507,442,413
453479,508,505,459
453483,508,547,497
453487,507,533,574
453491,508,595,534
453495,508,470,470
453499,508,475,466
453504,509,500,478
453508,509,489,472
453511,509,493,529
453515,508,484,486
453519,508,505,526
453523,508,506,493
453527,507,485,508
453531,507,510,541
453535,506,499,479
453539,506,522,487
453543,507,578,636
453548,507,512,515
453552,506,460,433
453556,507,487,471
453560,507,531,465
453564,507,546,495
453567,508,560,542
453571,508,511,552
453575,508,532,537
453579,509,557,530
453583,510,454,474
453587,510,463,543
453592,509,490,524
453596,509,490,485
453600,508,505,467
453604,506,534,519
453608,506,477,495
453612,506,476,472
453616,506,534,471
453620,506,577,550
453623,506,589,572
453627,506,522,531
453632,508,460,451
453636,509,476,448
453640,507,494,471
453644,507,562,551
453648,507,549,624
453652,507,507,566
453656,505,467,434
453660,504,466,422
453664,506,471,534
453668,507,491,501
453672,507,518,459
453677,507,561,517
453680,506,583,554
453684,506,527,477
453688,507,567,530
453692,507,462,465
453696,507,466,445
453700,507,493,501
453704,506,579,567
453708,506,508,540
453712,508,485,483
453716,508,499,487
453721,508,474,473
453725,509,510,562
453729,508,477,497
453733,507,530,587
453736,508,554,560
453740,507,498,480
453744,508,494,476
453748,508,507,517
453752,509,507,512
453756,508,490,434
453761,507,497,465
453765,507,537,516
453769,507,536,510
453773,508,508,484
453777,507,500,494
453781,507,488,515
453785,506,515,505
453789,507,532,495
453792,507,603,581
453796,508,504,598
453800,508,431,477
453805,507,529,520
453809,508,528,497
453813,508,484,562
453817,507,474,507
453821,508,521,490
453825,507,550,489
453829,508,476,470
453833,509,467,467
453837,509,457,455
453841,508,506,506
453846,506,543,524
453849,507,598,557
453853,507,545,520
453857,506,450,477
453861,506,482,515
453865,506,555,524
453869,507,561,523
453873,506,491,534
453877,505,498,571
453881,506,476,502
453885,506,498,531
453890,506,478,446
453894,506,489,488
453898,507,488,518
453902,507,527,483
453905,509,509,458
453909,509,539,495
453913,508,544,547
453917,507,572,608
453921,508,497,491
453925,507,495,461
453929,505,525,489
453934,506,538,558
453938,507,528,600
453942,506,509,519
453946,507,495,469
453950,506,518,519
453954,505,481,561
453958,506,469,526
453961,506,525,510
453965,507,494,449
453969,508,518,508
453974,509,522,510
453978,510,519,550
453982,511,472,461
453986,510,483,435
453990,509,542,506
453994,510,545,601
453998,509,524,553
454002,508,532,495
454006,508,495,478
454010,509,505,520
454014,508,510,581
454018,507,594,514
454022,507,523,500
454026,507,467,473
454030,505,461,500
454034,505,456,516
454038,507,529,528
454042,508,649,624
454046,508,567,616
454050,507,428,481
454054,507,498,530
454059,507,520,473
454063,507,537,455
454067,507,581,532
454070,507,603,632
454074,508,495,536
454078,508,429,448
454082,508,541,511
454086,506,481,510
454090,506,436,486
454094,506,472,481
454098,506,483,462
454103,506,535,508
454107,505,531,598
454111,505,484,525
454115,506,497,491
454119,508,489,474
454123,509,506,457
454126,508,522,540
454130,507,503,552
454134,506,502,514
454138,505,505,462
454142,505,560,525
454147,505,534,550
454151,506,484,513
454155,506,476,467
454159,506,493,460
454163,504,582,547
454167,505,525,585
454171,506,498,519
454175,507,504,523
454179,507,503,461
454182,506,506,521
454187,507,469,504
454191,508,482,499
454195,508,515,507
454199,508,510,500
454203,508,542,554
454207,507,519,498
454211,508,537,534
454215,507,481,478
454219,508,453,462
454223,508,472,505
454227,508,507,510
454232,508,547,523
454236,508,585,503
454239,509,517,521
454243,509,523,553
454247,509,457,479
454251,509,496,496
454255,509,540,531
454259,509,467,481
454263,509,492,519
454267,509,527,558
454272,509,483,475
454276,507,501,484
454280,507,509,476
454284,508,509,523
454288,508,557,562
454292,507,493,503
454295,506,484,477
454299,507,507,500
454303,507,573,556
454307,507,568,573
454311,507,503,503
454316,507,449,464
454320,508,500,493
454324,508,591,571
454328,507,670,641
454332,507,481,537
454336,507,427,437
454340,507,502,562
454344,508,459,493
454348,508,502,473
454351,508,654,582
454355,508,587,554
454360,508,378,435
454364,508,420,455
454368,508,477,481
454372,509,454,433
454376,510,460,459
454380,510,472,500
454384,509,534,544
454388,508,579,543
454392,508,521,524
454396,507,471,496
454401,507,506,542
454405,508,570,587
454408,510,509,466
454412,510,521,470
454416,509,463,491
454420,507,485,501
454424,508,548,492
454428,507,513,479
454432,507,567,542
454436,507,602,605
454440,506,468,535
454445,507,529,542
454449,507,507,477
454453,507,481,491
454457,506,446,536
454461,505,499,495
454464,506,494,481
454468,506,518,468
454472,507,528,525
454476,508,479,494
454480,508,466,461
454484,509,488,458
454489,509,554,527
454493,510,526,531
454497,509,532,542
454501,509,544,540
454505,508,517,496
454509,507,521,468
454513,506,594,584
454517,507,490,539
454520,508,442,466
454524,508,475,528
454529,508,490,500
454533,508,498,502
454537,508,582,510
454541,507,612,549
454545,506,468,481
454549,506,479,498
454553,506,550,622
454557,507,428,518
454561,507,472,453
454565,508,493,422
454569,506,507,447
454574,506,527,529
454577,507,582,560
454581,508,521,479
454585,509,468,468
454589,508,464,492
454593,509,497,526
454597,509,589,606
454601,508,520,511
454605,507,468,452
454609,507,445,467
454614,507,489,527
454618,506,568,547
454622,506,572,544
454626,506,516,525
454630,506,564,526
454633,507,543,502
454637,507,579,528
454641,507,544,468
454645,508,426,448
454649,507,414,492
454653,507,496,541
454658,507,473,497
454662,507,529,485
454666,508,567,558
454670,508,445,564
454674,509,454,486
454678,509,498,447
454682,509,522,483
454686,508,471,503
454689,508,493,567
454693,508,521,557
454697,508,544,490
454702,508,554,490
454706,508,462,463
454710,509,469,487
454714,510,488,504
454718,509,526,508
454722,509,490,475
454726,508,594,577
454730,508,542,613
454734,507,502,496
454738,507,474,459
454743,508,495,533
454746,508,504,572
454750,507,524,542
454754,508,544,478
454758,508,486,520
454762,509,511,601
454766,509,466,467
454770,509,454,424
454774,508,499,441
454778,508,500,476
454782,509,492,523
454787,509,538,576
454791,509,575,501
454795,510,542,490
454799,511,570,562
454802,511,471,513
454806,509,483,499
454810,508,516,539
454814,508,473,475
454818,508,505,474
454822,509,553,572
454827,508,567,633
454831,508,473,459
454835,508,437,439
454839,508,476,498
454843,508,551,569
454847,508,508,504
454851,507,472,428
454855,506,475,415
454858,506,486,477
454862,506,615,607
454866,507,532,523
454871,509,546,486
454875,507,449,460
454879,506,462,501
454883,506,623,576
454887,507,662,596
454891,507,471,509
454895,508,473,547
454899,508,452,543
454903,508,472,533
454907,508,477,532
454912,507,464,414
454915,505,456,405
454919,504,446,460
454923,503,553,503
454927,504,731,627
454931,505,487,521
454935,505,382,433
454939,507,446,439
454943,508,535,489
454947,508,514,452
454951,508,508,479
454956,508,509,529
454960,508,580,603
454964,508,675,639
454968,507,486,466
454971,507,399,428
454975,508,408,443
454979,508,459,507
454983,508,532,527
454987,507,516,511
454991,507,498,537
454995,507,494,469
455000,507,496,457
455004,508,614,518
455008,507,523,519
455012,507,456,462
455016,506,492,521
455020,506,520,529
455024,508,596,520
455027,508,537,519
455031,507,579,561
455035,507,477,517
455040,507,432,451
455044,508,508,490
455048,508,457,464
455052,507,452,487
455056,506,473,488
455060,506,542,557
455064,506,516,490
455068,506,494,465
455072,506,505,480
455076,508,491,504
455080,507,590,534
455084,506,558,528
455088,506,620,565
455092,506,524,547
455096,506,466,537
455100,506,488,485
455104,507,523,477
455108,507,477,481
455112,507,522,541
455116,509,473,521
455120,509,484,549
455124,509,569,569
455129,509,465,465
455133,509,457,466
455137,509,479,469
455140,509,537,535
455144,510,519,498
455148,510,533,482
455152,510,547,512
455156,509,489,462
455160,509,509,466
455164,509,520,487
455169,509,497,531
455173,509,518,570
455177,508,540,526
455181,508,501,524
455185,509,507,535
455189,509,479,509
455193,509,458,483
455196,510,490,479
455200,510,560,508
455204,509,566,552
455208,508,507,551
455213,507,472,483
455217,506,486,463
455221,507,481,489
455225,507,512,489
455229,507,524,568
455233,508,550,555
455237,507,495,457
455241,507,494,441
455245,509,557,490
455249,510,534,543
455252,510,592,610
455257,508,472,503
455261,507,430,451
455265,508,445,470
455269,508,511,531
455273,508,540,529
455277,509,538,554
455281,509,484,505
455285,508,462,486
455289,508,517,482
455293,507,574,522
455298,507,527,514
455302,507,491,535
455306,506,492,491
455309,507,531,519
455313,507,661,565
455317,508,597,549
455321,508,426,489
455325,507,385,453
455329,507,461,489
455333,508,550,582
455337,508,536,550
455342,508,480,473
455346,508,456,474
455350,506,472,468
455354,507,566,525
455358,507,646,600
455362,508,497,540
455365,508,428,452
455369,508,474,458
455373,508,537,514
455377,507,509,502
455382,506,496,504
455386,506,485,496
455390,505,529,479
455394,505,620,560
455398,505,616,582
455402,506,459,517
455406,506,466,507
455410,506,630,639
455414,507,516,521
455418,507,396,437
455421,507,460,474
455426,506,506,526
455430,506,552,544
455434,507,503,449
455438,507,443,443
455442,508,451,480
455446,509,508,513
455450,508,589,522
455454,507,555,584
455458,508,569,583
455462,508,463,482
455467,509,470,462
455471,509,511,467
455475,508,553,524
455478,508,498,539
455482,508,472,500
455486,508,540,495
455490,507,546,541
455494,506,499,581
455498,507,587,602
455502,507,520,533
455506,508,426,410
455511,506,480,438
455515,505,522,512
455519,505,458,505
455523,507,513,554
455527,506,481,459
455531,507,497,444
455534,508,545,499
455538,508,601,611
455542,509,531,539
455546,510,457,455
455550,510,484,474
455555,510,568,620
455559,509,608,596
455563,509,486,473
455567,511,552,506
455571,510,632,634
455575,510,548,625
455579,509,386,469
455583,509,471,483
455587,509,566,516
455590,509,434,498
455595,508,447,487
455599,509,423,474
455603,509,436,431
455607,508,480,436
455611,508,539,519
455615,508,476,487
455619,508,490,460
455623,507,525,444
455627,506,548,484
455631,507,547,575
455635,508,631,625
455640,507,513,528
455644,506,438,447
455647,506,424,453
455651,508,488,529
455655,509,542,615
455659,508,514,538
455663,508,490,437
455667,508,501,486
455671,508,588,561
455675,508,625,634
455680,508,459,434
455684,509,417,391
455688,507,430,449
455692,508,516,569
455696,508,557,522
455700,507,529,477
455703,507,494,485
455707,507,509,494
455711,506,656,663
455715,506,525,572
455719,507,456,428
455724,507,409,418
455728,507,423,445
455732,507,453,499
455736,507,497,498
455740,507,563,494
455744,507,506,515
455748,508,483,491
455752,507,539,539
455756,507,616,640
455759,508,643,638
455763,507,526,477
455768,507,394,408
455772,506,427,426
455776,506,519,470
455780,507,545,481
455784,508,544,510
455788,508,453,500
455792,510,446,480
455796,510,496,485
455800,509,731,671
455804,508,607,673
455809,506,370,414
455812,506,393,402
455815,507,451,457
455819,507,470,438
455823,506,471,468
455827,506,496,496
455831,507,525,572
455835,508,524,455
455839,508,538,485
455843,507,506,527
455847,508,515,524
455852,507,533,497
455856,508,504,455
455860,507,543,493
455864,508,608,596
455867,508,681,682
455870,508,586,604
455874,507,387,454
455878,507,360,410
455882,506,400,445
455886,507,465,466
455890,507,493,475
455895,506,506,546
455899,507,500,523
455903,507,469,453
455907,506,496,440
455911,505,517,450
455915,506,523,476
455919,507,641,555
455922,507,578,567
455925,507,470,514
455929,508,497,512
455933,508,489,508
455938,509,545,565
455942,509,500,541
455946,509,496,491
455950,508,491,499
455954,509,449,481
455958,509,458,487
455962,509,511,532
455966,509,714,657
455970,508,548,527
455974,507,400,412
455977,508,403,431
455981,509,481,495
455985,507,572,606
455989,508,494,471
455993,508,463,431
455997,508,461,458
456001,507,502,486
456005,507,562,502
456009,507,532,492
456013,505,470,493
456017,505,488,519
456022,508,519,514
456026,508,512,495
456030,508,498,495
456033,509,492,537
456036,508,537,601
456040,507,543,506
456044,507,506,454
456048,508,521,500
456052,508,490,508
456056,508,534,553
456060,509,514,504
456065,508,479,453
456069,507,490,505
456073,506,629,659
456077,507,553,555
456081,507,459,437
456085,506,475,434
456089,505,450,471
456093,504,469,500
456097,505,497,497
456101,506,519,489
456105,506,523,528
456110,505,570,578
456114,505,499,531
456118,507,467,465
456122,507,496,458
456126,508,487,481
456130,507,487,521
456134,508,505,528
456138,508,527,508
456142,508,541,499
456145,508,551,502
456150,508,548,587
456154,508,501,571
456158,508,511,471
456162,508,516,471
456166,508,475,479
456170,508,474,499
456174,508,518,518
456178,508,533,506
456182,507,548,487
456186,506,526,532
456190,506,474,526
456195,507,487,509
456199,507,508,496
456202,507,525,493
456206,508,489,501
456210,509,499,529
456214,509,542,521
456218,510,539,499
456222,510,502,504
456226,511,491,513
456230,511,537,533
456235,509,527,532
456239,509,502,499
456243,509,501,503
456247,508,479,503
456251,507,492,503
456255,507,525,497
456258,507,526,496
456262,507,518,504
456266,506,499,513
456270,506,506,520
456274,506,522,492
456279,506,524,476
456283,507,516,504
456287,507,507,538
456291,507,516,527
456295,507,521,509
456299,508,514,505
456303,508,499,518
456307,508,496,523
456311,509,514,509
456314,509,531,512
456318,509,527,521
456323,509,496,523
456327,508,501,512
456331,508,523,488
456335,508,543,476
456339,507,522,503
456343,506,505,521
456347,505,510,513
456351,506,520,513
456355,506,514,509
456359,506,498,518
456364,506,498,532
456368,506,517,533
456371,507,528,515
456375,506,517,509
456379,505,497,523
456383,506,496,534
456387,507,516,525
456391,507,527,506
456395,507,513,510
456399,507,493,527
456403,506,497,534
456408,507,520,523
456412,507,524,502
456416,505,505,514
456420,505,493,527
456424,506,508,528
456427,507,521,511
456431,507,520,500
456435,507,502,509
456439,506,491,522
456443,506,506,519
456448,508,523,504
456452,508,516,493
456456,507,495,502
456460,506,492,518
456464,507,514,517
456468,507,527,498
456472,508,513,490
456476,507,496,500
456480,507,493,512
456483,508,514,506
456487,508,529,492
456492,509,510,494
456496,508,491,507
456500,508,499,517
456504,510,522,510
456508,510,529,494
456512,509,514,499
456516,508,497,514
456520,508,509,515
456524,509,527,507
456528,509,528,496
456532,508,510,502
456537,508,500,518
456540,508,514,517
456544,508,533,499
456548,508,525,488
456552,508,501,496
456556,508,495,511
456560,507,516,509
456564,507,532,497
456568,508,520,493
456572,508,498,504
456577,509,500,517
456581,508,523,511
456585,509,532,497
456589,510,514,498
456593,510,497,514
456596,511,507,524
456600,511,530,515
456604,511,534,498
456608,511,512,501
456612,511,496,519
456616,510,511,523
456621,510,532,510
456625,510,528,501
456629,509,505,511
456633,509,497,526
456637,508,514,523
456641,508,531,509
456645,508,522,500
456649,507,501,508
456652,506,500,521
456656,506,520,518
456660,507,535,501
456665,507,519,498
456669,505,498,510
456673,505,500,521
456677,507,522,512
456681,507,533,499
456685,507,516,500
456689,507,500,512
456693,507,506,519
456697,508,527,505
456701,508,531,496
456706,507,510,508
456709,508,498,526
456713,508,509,527
456717,508,528,512
456721,506,526,504
456725,506,504,513
456729,506,495,526
456733,507,506,522
456737,507,526,509
456741,507,520,499
456745,506,500,510
456750,507,496,522
456754,506,516,520
456758,507,532,503
456762,507,518,500
456765,506,498,513
456769,506,500,523
456773,507,519,513
456777,507,527,499
456781,507,511,500
456785,505,501,516
456790,506,514,523
456794,507,523,514
456798,507,520,498
456802,506,500,505
456806,506,490,519
456810,506,503,525
456814,507,523,513
456818,508,521,502
456821,507,500,508
456825,508,493,523
456829,510,509,523
456834,510,523,507
456838,509,516,499
456842,507,499,509
456846,505,499,522
456850,506,519,518
456854,506,527,502
456858,507,513,497
456862,506,496,512
456866,506,500,523
456870,506,518,514
456875,507,524,500
456878,507,511,503
456882,507,493,520
456886,508,502,527
456890,508,522,515
456894,509,520,499
456898,509,502,506
456902,509,492,524
456906,508,505,527
456910,508,522,513
456914,507,519,500
456919,506,497,508
456923,505,491,523
456927,506,508,523
456931,506,521,505
456934,506,515,499
456938,507,498,511
456942,508,493,522
456946,508,512,516
456950,508,523,501
456954,508,510,498
456958,508,492,512
456963,508,495,522
456967,508,516,516
456971,508,522,500
456975,507,504,502
456979,507,490,519
456983,507,499,526
456987,507,519,512
456990,509,520,498
456994,509,500,504
456998,508,489,521
457003,508,502,526
457007,508,522,511
457011,509,517,499
457015,508,495,506
457019,508,488,521
457023,508,509,521
457027,509,526,506
457031,509,508,497
457035,507,487,509
457039,506,487,520
457043,506,509,514
457047,506,523,497
457051,507,509,495
457055,506,488,507
457059,506,492,517
457063,506,515,509
457067,507,522,496
457071,507,503,499
457075,506,487,515
457079,507,497,521
457083,507,519,511
457088,507,519,500
457092,506,498,505
457096,506,487,521
457100,508,502,523
457103,509,522,508
457107,508,520,496
457111,508,498,504
457115,507,492,518
457119,506,511,517
457123,506,524,501
457127,505,512,494
457132,505,494,507
457136,506,496,519
457140,506,517,513
457144,506,527,497
457148,506,514,496
457152,506,496,509
457156,506,502,519
457159,508,517,509
457163,508,523,496
457167,508,510,498
457171,508,497,513
457176,508,508,522
457180,507,525,510
457184,507,524,498
457188,507,507,503
457192,508,498,520
457196,508,510,521
457200,509,527,506
457204,510,523,497
457208,508,503,507
457212,509,498,522
457216,509,515,519
457220,508,527,503
457224,508,514,496
457228,507,495,509
457232,506,494,522
457236,506,515,515
457240,506,524,499
457244,506,509,495
457248,506,492,509
457252,507,498,519
457256,507,520,510
457261,507,524,496
457265,507,505,499
457269,508,491,515
457272,507,499,519
457276,507,517,507
457280,508,517,494
457284,507,499,501
457288,507,490,518
457292,509,503,518
457296,508,519,503
457300,508,513,493
457305,508,493,504
457309,505,489,516
457313,506,505,512
457317,507,515,498
457321,507,501,494
457325,507,486,507
457328,507,486,517
457332,508,508,509
457336,507,522,496
457340,506,506,494
457345,505,488,508
457349,506,495,516
457353,506,514,505
457357,506,520,493
457361,507,505,498
457365,507,493,516
457369,509,500,520
457373,509,519,506
457377,508,518,494
457381,508,500,503
457384,507,493,520
457389,507,506,519
457393,508,522,503
457397,509,515,495
457401,509,495,505
457405,509,490,519
457409,508,510,514
457413,508,522,499
457417,508,510,496
457421,508,491,510
457425,507,494,521
457430,506,514,512
457434,506,525,497
457438,505,510,497
457441,505,492,511
457445,504,498,518
457449,506,519,508
457453,508,522,494
457457,507,501,498
457461,508,488,514
457465,507,502,517
457469,508,527,508
457474,507,519,500
457478,507,498,506
457482,507,490,523
457486,508,505,523
457490,508,521,507
457494,509,515,499
457497,509,497,510
457501,508,493,522
457505,508,510,515
457509,508,522,498
457513,507,508,493
457518,509,489,506
457522,509,492,518
457526,508,513,509
457530,508,521,493
457534,509,506,493
457538,508,488,509
457542,507,498,519
457546,508,519,509
457550,509,521,495
457553,508,503,499
457558,509,491,514
457562,509,503,518
457566,508,521,504
457570,508,520,495
457574,508,499,504
457578,507,494,519
457582,508,508,519
457586,508,523,503
457590,509,514,494
457594,508,500,505
457598,508,497,520
457603,507,509,514
457607,507,519,497
457610,507,507,493
457614,506,492,509
457618,506,496,519
457622,508,513,510
457626,509,520,494
457630,508,505,492
457634,507,493,512
457638,507,501,521
457643,507,515,508
457647,508,519,494
457651,506,501,499
457655,506,490,517
457659,506,503,520
457663,506,520,506
457666,508,518,495
457670,508,500,503
457674,509,494,519
457678,508,509,518
457682,508,524,504
457687,508,516,497
457691,508,494,510
457695,506,492,521
457699,506,511,514
457703,505,523,499
457707,507,511,494
457711,508,494,507
457715,508,497,519
457719,509,517,510
457722,509,523,494
457726,508,504,496
457731,508,487,510
457735,508,497,517
457739,509,518,506
457743,509,520,494
457747,508,502,500
457751,508,492,515
457755,509,504,519
457759,509,521,505
457763,508,516,495
457767,508,496,503
457772,507,492,519
457776,508,510,518
457779,508,526,501
457783,508,515,493
457787,507,494,503
457791,506,493,515
457795,506,513,512
457799,507,525,497
457803,506,509,493
457807,506,490,502
457811,507,497,514
457816,507,518,507
457820,507,519,492
457824,508,502,494
457828,508,488,511
457831,507,500,519
457834,508,519,509
457838,509,519,496
457842,508,501,500
457846,509,490,515
457850,509,501,518
457854,509,522,504
457859,508,521,496
457863,509,501,506
457867,509,496,522
457871,509,513,521
457875,509,527,504
457879,508,515,496
457883,509,494,506
457886,508,494,519
457889,508,513,514
457893,509,524,499
457897,509,510,495
457902,510,491,507
457906,509,496,516
457910,507,517,507
457914,507,520,493
457918,507,503,496
457922,506,490,512
457926,506,503,519
457930,506,521,506
457934,507,520,494
457938,506,503,501
457942,506,494,518
457945,506,506,521
457949,507,523,507
457953,507,519,497
457957,506,499,508
457961,507,494,523
457965,508,513,522
457969,507,529,506
457973,509,515,499
457977,508,496,510
457981,507,497,524
457986,507,514,516
457990,508,523,499
457994,508,509,497
457997,507,493,513
458000,507,497,520
458004,508,516,510
458008,508,522,496
458012,508,503,498
458016,509,490,514
458020,509,502,520
458024,510,520,508
458029,509,520,495
458033,509,499,502
458037,509,492,519
458041,509,509,521
458045,509,526,504
458049,509,519,495
458052,508,498,506
458055,508,494,520
458059,509,511,518
458063,509,524,503
458067,507,514,500
458072,507,495,513
458076,506,494,523
458080,506,515,516
458084,507,522,500
458088,507,505,496
458092,506,489,509
458096,507,496,519
458100,506,518,509
458104,505,521,492
458107,505,502,496
458110,506,490,512
458115,508,502,518
458119,507,521,506
458123,507,519,495
458127,506,501,502
458131,506,491,517
458135,506,506,520
458139,506,523,506
458143,506,516,497
458147,506,497,507
458151,507,494,522
458156,507,511,518
458160,507,522,501
458163,507,510,496
458167,506,493,510
458171,506,495,522
458175,507,514,514
458179,508,521,497
458183,508,508,495
458187,508,491,510
458191,508,499,519
458195,508,519,506
458200,507,521,493
458204,505,504,497
458208,504,489,513
458212,504,499,517
458216,505,520,505
458219,505,519,495
458223,504,500,504
458227,506,490,519
458231,506,506,522
458235,507,522,507
458240,507,514,497
458244,507,495,508
458248,507,493,522
458252,507,510,519
458256,508,525,505
458260,509,516,502
458264,510,493,513
458268,508,495,521
458272,508,514,513
458275,508,520,496
458279,507,505,497
458284,508,491,512
458288,507,498,519
458292,508,515,507
458296,508,517,493
458300,508,500,498
458304,507,488,514
458308,507,501,517
458312,507,520,504
458316,508,517,494
458320,508,496,502
458324,507,488,518
458329,508,503,518
458332,507,521,506
458336,508,514,498
458340,506,495,508
458344,505,492,523
458348,505,509,518
458352,506,521,503
458356,506,508,499
458360,506,489,512
458364,506,489,522
458369,506,510,514
458373,507,520,499
458377,507,505,497
458381,507,488,512
458385,506,498,520
458388,506,520,509
458392,507,522,495
458396,506,500,499
458400,505,489,513
458404,504,502,515
458408,505,520,502
458413,507,519,494
458417,507,497,502
458421,506,489,517
458425,508,505,517
458429,509,520,501
458433,510,514,496
458437,510,495,509
458441,508,493,522
458444,508,511,519
458448,509,523,503
458452,509,512,500
458457,508,496,514
458461,507,499,523
458465,507,517,513
458469,507,522,498
458473,506,506,498
458477,506,490,512
458481,507,500,519
458485,508,521,507
458489,507,525,493
458493,506,506,497
458498,506,495,514
458501,507,507,518
458505,508,525,504
458509,510,520,493
458513,509,499,500
458517,509,494,518
458521,511,511,519
458525,511,525,502
458529,511,518,494
458533,511,500,507
458537,510,497,521
458542,510,515,515
458546,509,526,496
458550,510,514,493
458554,509,496,508
458557,508,500,519
458561,507,520,509
458565,508,525,493
458569,507,508,494
458573,507,492,511
458577,508,501,520
458582,509,522,507
458586,510,525,494
458590,510,506,500
458594,509,494,516
458598,509,507,519
458602,508,523,505
458606,507,521,498
458610,507,503,509
458613,508,499,522
458617,509,516,518
458621,510,530,502
458626,510,521,496
458630,510,501,507
458634,510,500,519
458638,509,517,518
458642,509,528,506
458646,511,514,503
458650,511,497,516
458654,510,500,525
458658,510,519,512
458662,510,526,497
458667,509,508,499
458670,508,493,512
458674,508,503,519
458678,509,523,507
458682,508,523,494
458686,508,504,498
458690,507,493,514
458694,508,509,518
458698,509,528,507
458702,509,525,497
458706,508,508,503
458711,508,494,520
458715,507,510,519
458719,507,527,501
458723,508,521,496
458726,508,500,511
458730,508,500,522
458734,509,519,516
458738,509,530,501
458742,508,515,496
458746,508,500,510
458750,507,503,520
458755,508,519,514
458759,507,525,498
458763,507,509,501
458767,507,495,516
458771,506,502,519
458775,506,523,505
458779,506,525,492
458782,506,507,499
458786,506,495,515
458790,506,511,516
458795,507,526,501
458799,507,521,491
458803,508,502,503
458807,507,497,519
458811,506,517,518
458815,507,530,502
458819,509,519,497
458823,509,498,508
458827,509,497,521
458831,509,517,516
458835,510,527,498
458839,510,511,496
458843,510,494,512
458847,510,501,520
458851,510,515,512
458855,509,520,497
458859,509,506,499
458863,508,492,514
458867,508,505,520
458871,509,524,507
458875,508,523,494
458880,507,504,499
458884,506,493,516
458888,506,507,518
458892,507,523,504
458895,507,514,493
458899,506,495,503
458903,506,493,517
458907,506,512,515
458911,506,522,503
458915,507,513,498
458919,506,494,509
458924,505,495,523
458928,505,514,518
458932,504,522,503
458936,505,507,501
458940,506,490,515
458944,506,499,525
458948,507,519,513
458951,505,524,497
458955,504,509,504
458959,504,502,523
458963,505,518,538
458968,505,525,511
458972,505,509,484
458976,504,487,491
458980,505,481,511
458984,506,504,516
458988,506,525,503
458992,507,518,495
458996,507,496,505
459000,507,492,519
459004,508,509,520
459008,509,522,501
459012,509,512,497
459016,508,495,509
459020,507,494,521
459024,508,511,515
459028,507,521,500
459032,507,506,500
459036,508,488,513
459040,507,496,522
459044,508,516,511
459048,508,522,498
459053,508,504,501
459057,507,490,517
459061,506,503,522
459064,506,521,507
459068,507,521,495
459072,508,502,501
459076,507,493,516
459080,507,508,516
459084,507,524,501
459088,509,519,495
459092,510,498,508
459097,509,495,522
459101,508,516,518
459105,509,529,502
459109,510,517,498
459113,511,498,512
459117,511,500,525
459120,510,521,518
459124,510,527,502
459128,509,510,500
459132,509,495,516
459137,509,502,525
459141,509,519,512
459145,509,520,496
459149,510,503,500
459153,511,493,518
459157,510,502,519
459161,509,519,506
459165,508,518,495
459169,507,499,503
459173,507,491,517
459176,508,508,519
459181,508,524,505
459185,508,516,498
459189,508,495,509
459193,508,494,522
459197,507,514,518
459201,507,526,500
459205,506,514,497
459209,506,494,511
459213,506,498,521
459217,504,520,514
459222,504,527,498
459226,506,508,496
459230,506,492,512
459233,507,502,520
459237,508,522,508
459241,507,524,494
459245,507,505,498
459249,507,494,515
459253,507,508,518
459257,507,527,504
459261,505,523,494
459266,505,501,503
459270,506,494,515
459274,507,511,514
459278,507,528,500
459282,506,520,494
459286,507,500,507
459289,509,497,520
459293,509,516,512
459297,509,528,497
459301,507,515,494
459305,507,497,509
459310,507,501,521
459314,508,522,514
459318,508,529,499
459322,508,513,499
459326,508,494,513
459330,509,503,520
459334,510,524,508
459338,509,524,494
459342,509,506,498
459345,508,500,512
459350,509,511,515
459354,509,522,501
459358,508,518,491
459362,507,500,501
459366,507,494,516
459370,507,509,513
459374,507,523,496
459378,508,515,490
459382,508,506,502
459386,508,508,520
459390,508,514,519
459395,508,520,497
459399,508,531,490
459402,508,528,503
459406,508,502,525
459410,508,522,517
459414,508,531,503
459418,508,509,507
459422,507,516,514
459426,507,524,526
459430,507,511,531
459435,507,509,511
459439,507,494,514
459443,506,485,523
459447,505,507,514
459451,505,520,502
459455,506,511,494
459458,506,493,495
459462,507,510,502
459466,508,525,514
459470,507,525,514
459474,507,514,513
459479,507,487,518
459483,507,491,529
459487,508,508,527
459491,508,515,507
459495,508,517,497
459499,507,505,522
459503,507,496,533
459507,509,508,525
459511,509,525,512
459515,508,506,511
459520,508,485,528
459524,506,500,529
459528,507,518,514
459532,507,520,495
459536,506,514,493
459540,506,486,506
459544,506,489,525
459548,507,520,524
459552,508,517,506
459556,508,493,506
459560,507,489,521
459565,508,504,516
459568,508,523,502
459572,508,524,489
459576,507,497,508
459580,507,507,527
459584,507,531,529
459588,507,535,518
459592,508,518,514
459596,507,484,513
459600,508,498,521
459604,509,514,509
459609,509,524,493
459613,509,531,494
459617,508,497,522
459621,508,496,545
459624,508,522,509
459628,507,522,503
459632,507,506,506
459636,508,512,534
459640,507,540,551
459644,507,547,510
459649,507,514,500
459653,507,500,512
459657,508,495,517
459661,510,535,535
459665,510,558,547
459669,511,510,504
459673,509,503,512
459677,507,506,538
459680,507,538,535
459684,508,537,519
459688,508,522,532
459693,508,495,551
459697,508,483,532
459701,507,533,511
459705,507,535,528
459709,507,498,495
459713,508,504,525
459717,508,525,558
459721,509,506,505
459725,508,525,530
459729,507,505,507
459734,506,483,500
459737,507,531,523
459741,507,568,523
459745,507,495,501
459749,506,492,523
459753,506,477,521
459757,506,506,520
459761,506,531,532
459765,508,550,530
459769,509,514,517
459773,508,575,608
459778,508,527,572
459782,508,480,484
459786,508,468,445
459790,507,486,480
459793,508,505,550
459797,507,561,594
459801,508,530,524
459805,508,474,479
459809,507,469,486
459813,507,488,516
459817,508,534,537
459822,509,513,481
459826,508,489,502
459830,507,570,555
459834,506,530,539
459838,506,466,476
459842,507,473,428
459846,507,517,492
459849,506,529,552
459853,507,509,542
459857,508,516,496
459862,506,496,466
459866,507,506,498
459870,508,509,515
459874,508,532,545
459878,507,556,544
459882,507,546,566
459886,507,481,559
459890,508,478,490
459894,510,492,467
459898,511,507,476
459902,510,493,466
459906,509,502,474
459910,508,524,526
459914,508,521,531
459918,507,564,531
459922,506,515,492
459926,506,470,501
459930,505,490,519
459934,507,523,516
459938,508,557,566
459942,508,473,503
459947,507,446,474
459951,507,499,463
459955,507,562,492
459959,508,496,464
459962,507,463,479
459966,508,551,634
459970,509,510,500
459974,509,505,454
459978,509,485,497
459982,509,501,580
459986,510,545,562
459991,508,583,503
459995,507,460,441
459999,506,402,406
460003,504,450,464
460007,504,543,570
460011,504,530,509
460015,504,550,477
460018,506,541,525
460022,507,475,505
460026,507,478,473
460030,507,549,552
460035,508,627,576
460039,507,519,496
460043,508,457,493
460047,508,468,485
460051,508,461,462
460055,507,532,485
460059,506,504,508
460063,507,443,483
460067,506,462,437
460071,506,544,537
460075,507,573,629
460079,507,583,588
460083,508,452,430
460087,508,499,420
460091,509,511,471
460095,509,518,499
460099,507,490,542
460103,507,458,490
460107,507,502,497
460111,506,506,458
460115,506,561,548
460120,506,568,556
460124,506,471,470
460128,507,501,515
460131,507,464,524
460135,507,442,475
460139,506,465,456
460143,506,574,550
460147,507,493,450
460151,506,488,481
460155,506,506,532
460160,507,510,485
460164,507,531,512
460168,507,527,472
460172,507,569,518
460176,508,508,525
460180,508,497,524
460184,508,460,494
460187,509,464,471
460191,509,544,488
460195,509,563,586
460199,510,416,463
460204,510,464,477
460208,510,526,582
460212,511,517,518
460216,510,437,466
460220,510,438,414
460224,510,536,476
460228,510,553,497
460232,508,489,463
460236,507,519,482
460240,508,564,607
460243,509,541,505
460248,509,502,447
460252,508,515,489
460256,506,586,609
460260,507,473,489
460264,508,439,424
460268,508,501,515
460272,508,439,484
460276,508,463,508
460280,508,544,522
460284,508,545,505
460289,508,478,463
460293,508,481,492
460297,508,560,539
460300,508,547,565
460304,507,543,496
460308,507,627,556
460312,506,521,526
460316,505,434,446
460320,506,485,439
460324,505,552,486
460328,506,586,532
460333,508,540,518
460337,508,457,515
460341,508,484,588
460345,507,473,527
460349,505,525,512
460353,505,464,468
460356,506,484,498
460360,506,531,450
460364,506,506,452
460368,505,551,647
460372,506,466,492
460377,506,463,418
460381,506,470,421
460385,507,499,454
460389,506,595,542
460393,506,515,579
460397,506,472,481
460401,507,493,479
460405,507,518,523
460409,506,515,575
460412,506,537,558
460417,507,532,481
460421,506,458,465
460425,505,498,559
460429,506,519,524
460433,506,505,489
460437,505,484,415
460441,504,549,480
460445,505,480,470
460449,506,459,467
460453,506,501,480
460457,506,605,515
460462,506,532,529
460466,507,451,518
460469,508,486,553
460473,508,534,586
460477,508,518,480
460481,508,553,480
460485,507,469,513
460489,507,469,584
460493,508,512,498
460497,508,487,434
460502,507,462,431
460506,507,544,534
460510,507,516,536
460514,507,502,492
460518,506,498,468
460522,506,527,467
460525,507,488,502
460529,507,566,569
460533,507,550,507
460537,508,513,523
460541,507,480,509
460546,507,468,483
460550,508,522,491
460554,508,529,522
460558,508,525,474
460562,509,542,557
460566,509,460,517
460570,508,559,561
460574,508,473,537
460578,508,440,421
460581,508,451,447
460585,508,505,480
460590,508,545,502
460594,508,582,570
460598,508,488,507
460602,508,490,506
460606,508,506,477
460610,508,534,456
460614,508,555,501
460618,507,499,512
460622,507,439,486
460626,507,520,530
460631,508,578,573
460635,509,552,591
460638,508,445,455
460642,508,440,441
460646,507,501,503
460650,508,559,641
460654,507,551,510
460658,508,447,423
460662,508,473,441
460666,509,508,470
460670,511,629,560
460675,511,543,529
460679,511,430,477
460683,510,507,505
460687,508,521,502
460691,508,530,530
460694,507,617,627
460698,506,463,518
460702,506,423,465
460706,506,460,461
460710,507,487,551
460715,507,542,590
460719,507,493,506
460723,507,519,463
460727,508,479,421
460731,508,485,447
460735,508,521,544
460739,507,521,501
460743,507,532,490
460747,507,528,483
460750,507,523,526
460754,506,611,597
460759,506,557,565
460763,508,464,479
460767,508,550,563
460771,508,476,529
460775,508,445,520
460779,508,483,474
460783,508,478,439
460787,507,485,463
460791,507,517,540
460795,506,606,623
460800,505,482,465
460804,505,473,432
460807,504,504,457
460811,504,563,528
460815,504,515,520
460819,505,479,481
460823,505,496,476
460827,506,486,472
460831,505,548,543
460835,505,651,652
460839,506,574,596
460844,507,453,468
460848,507,449,459
460852,507,542,512
460856,508,687,634
460860,508,474,504
460863,507,377,405
460867,507,398,440
460871,508,435,481
460875,508,476,463
460879,508,513,474
460883,509,526,492
460888,508,534,550
460892,508,553,564
460896,508,535,505
460900,509,515,456
460904,508,494,471
460908,508,529,543
460912,507,525,538
460916,507,517,516
460919,508,504,488
460923,508,503,499
460928,509,595,597
460932,509,560,550
460936,510,450,482
460940,509,510,522
460944,508,470,479
460948,509,440,496
460952,509,510,560
460956,510,523,495
460960,510,492,458
460964,510,455,464
460968,510,482,477
460973,510,514,492
460976,509,565,498
460980,507,596,503
460984,507,471,514
460988,508,471,525
460992,507,484,522
460996,506,533,516
461000,505,523,525
461004,505,525,525
461008,507,552,571
461012,507,475,483
461017,507,474,476
461021,506,526,511
461025,506,491,496
461029,505,477,502
461032,506,488,493
461036,506,493,491
461040,506,495,489
461044,506,539,507
461048,507,551,576
461052,507,532,505
461057,508,473,444
461061,509,469,470
461065,509,490,501
461069,509,533,531
461073,509,532,498
461077,509,615,538
461081,507,518,518
461085,508,528,540
461088,510,467,531
461092,510,449,453
461096,507,486,466
461101,506,511,556
461105,505,495,558
461109,507,500,490
461113,507,523,476
461117,507,504,497
461121,508,519,491
461125,509,522,519
461129,510,544,526
461133,510,538,481
461137,509,484,474
461142,507,459,499
461145,507,501,521
461149,508,569,513
461153,508,565,538
461157,507,563,542
461161,507,586,618
461165,508,465,583
461169,508,431,426
461173,507,452,413
461177,506,459,470
461181,506,461,502
461186,507,508,496
461190,507,528,500
461194,506,528,553
461198,507,519,524
461201,505,534,523
461205,505,525,473
461209,505,538,479
461213,506,502,492
461217,507,506,505
461221,507,540,549
461225,507,563,578
461230,507,569,525
461234,507,559,548
461238,508,434,495
461242,509,531,580
461246,508,517,590
461250,509,473,492
461254,509,432,420
461257,507,453,469
461261,505,514,543
461265,505,576,597
461270,505,514,464
461274,505,524,464
461278,505,613,551
461282,506,529,527
461286,507,515,511
461290,506,529,500
461294,507,454,502
461298,507,440,490
461302,508,495,506
461306,507,553,529
461310,508,656,631
461314,509,484,514
461318,510,478,542
461322,510,476,507
461326,512,480,465
461330,511,466,486
461334,511,440,457
461338,512,544,556
461342,511,570,539
461346,509,517,464
461350,508,512,487
461355,509,477,501
461359,509,491,541
461363,508,483,474
461367,508,497,449
461370,507,488,486
461374,506,495,506
461378,506,515,506
461382,507,569,558
461386,507,553,532
461390,508,555,543
461394,507,531,564
461399,508,524,536
461403,507,467,452
461407,506,461,444
461411,507,489,504
461415,508,507,548
461419,507,497,493
461423,508,518,500
461426,508,614,605
461430,508,500,538
461434,507,459,458
461438,508,487,473
461443,508,540,532
461447,508,549,568
461451,509,446,488
461455,508,472,488
461459,506,525,493
461463,506,530,493
461467,507,505,571
461471,506,453,497
461475,506,470,452
461479,506,505,459
461483,506,596,551
461487,506,530,548
461491,506,458,511
461495,507,488,505
461499,508,507,520
461503,507,570,537
461507,507,663,649
461511,508,469,523
461515,508,426,419
461519,508,461,432
461523,507,481,465
461528,507,489,531
461532,507,570,551
461536,508,572,546
461539,509,459,482
461543,509,461,483
461547,508,489,499
461551,508,646,629
461555,508,632,649
461559,508,507,489
461563,508,388,410
461568,508,413,453
461572,508,494,498
461576,507,563,505
461580,507,493,486
461584,508,462,525
461588,507,474,560
461592,508,509,459
461595,509,561,528
461599,509,523,464
461603,508,508,509
461607,509,560,536
461612,508,527,506
461616,507,529,533
461620,507,579,558
461624,508,554,560
461628,509,434,485
461632,508,461,467
461636,508,509,488
461640,507,504,513
461644,505,542,604
461648,506,456,508
461651,507,487,474
461656,508,524,490
461660,509,495,477
461664,509,490,518
461668,509,517,503
461672,509,569,525
461676,509,571,553
461680,508,445,465
461684,508,463,467
461688,507,546,500
461692,508,532,515
461697,508,514,542
461701,508,484,531
461705,506,493,481
461708,506,552,513
461712,506,487,475
461716,508,548,568
461720,508,678,722
461724,508,458,492
461728,509,403,396
461732,508,433,422
461736,507,454,458
461741,506,492,527
461745,507,509,510
461749,509,512,457
461753,509,496,466
461757,507,508,507
461761,507,614,571
461764,508,584,535
461768,507,465,467
461772,507,466,495
461776,505,484,549
461780,505,499,521
461785,506,608,558
461789,508,528,517
461793,507,454,482
461797,507,473,524
461801,509,513,561
461805,509,510,494
461809,508,496,443
461813,507,464,463
461817,506,465,523
461820,507,534,524
461825,508,624,586
461829,510,514,473
461833,510,437,439
461837,509,470,468
461841,509,566,525
461845,509,516,506
461849,508,526,533
461853,507,507,519
461857,507,487,503
461861,507,582,553
461865,507,614,583
461870,506,437,468
461874,506,416,478
461877,507,517,585
461881,507,568,541
461885,508,470,439
461889,507,457,470
461893,506,508,500
461897,507,484,468
461901,508,496,499
461905,508,519,470
461910,508,502,490
461914,508,471,505
461918,507,523,527
461922,507,603,594
461926,507,646,549
461930,507,437,473
461933,508,406,471
461937,508,462,490
461941,507,536,515
461945,506,519,552
461949,506,497,486
461954,506,510,553
461958,506,484,501
461962,507,486,454
461966,508,475,459
461970,508,504,517
461974,508,539,558
461978,507,513,466
461982,507,579,478
461986,507,530,483
461989,507,481,509
461993,508,491,539
461998,508,524,525
462002,508,585,533
462006,509,489,500
462010,509,494,521
462014,509,469,508
462018,509,494,537
462022,508,503,521
462026,509,506,498
462030,508,471,486
462034,507,483,513
462039,507,502,501
462043,507,492,439
462046,507,492,475
462050,508,526,499
462054,508,517,491
462058,507,566,518
462062,507,497,496
462066,506,484,528
462070,506,497,521
462074,507,554,502
462078,507,628,556
462083,506,487,510
462087,506,479,514
462091,506,487,512
462095,507,521,579
462099,507,525,499
462102,507,480,453
462106,508,506,516
462110,508,501,550
462114,508,603,619
462118,508,546,455
462123,508,432,426
462127,509,444,453
462131,509,489,482
462135,510,537,498
462139,509,515,509
462143,508,472,504
462147,508,490,510
462151,507,601,559
462155,507,595,573
462158,507,484,464
462162,507,446,472
462167,506,460,510
462171,506,490,501
462175,507,507,489
462179,508,552,544
462183,508,510,512
462187,507,480,477
462191,507,520,490
462195,508,517,518
462199,509,500,495
462203,508,478,508
462208,508,514,514
462212,508,545,510
462215,508,488,464
462219,509,501,505
462223,508,565,560
462227,508,500,519
462231,508,535,513
462235,508,519,539
462239,509,462,517
462243,507,507,529
462247,507,537,514
462252,507,468,472
462256,506,462,427
462260,507,502,485
462264,506,550,572
462268,506,567,532
462271,507,577,487
462275,507,479,492
462279,507,457,508
462283,507,503,515
462287,509,514,479
462291,509,495,477
462296,507,493,491
462300,507,537,546
462304,507,518,530
462308,506,497,486
462312,506,533,533
462316,506,484,539
462320,508,477,532
462324,509,520,545
462327,508,570,503
462331,509,576,505
462336,510,451,498
462340,509,468,495
462344,509,521,491
462348,508,492,473
462352,507,525,513
462356,507,515,538
462360,506,488,500
462364,505,553,516
462368,505,571,535
462372,506,485,496
462376,507,498,507
462381,506,477,504
462384,504,503,480
462388,505,494,514
462392,506,491,512
462396,506,492,521
462400,505,574,580
462404,505,549,550
462408,506,470,489
462412,505,451,474
462416,505,478,501
462420,506,510,512
462425,506,527,530
462429,507,524,511
462433,507,506,490
462437,507,488,502
462440,508,579,525
462444,508,566,507
462448,508,468,477
462452,507,458,514
462456,507,537,528
462460,506,550,509
462465,506,509,513
462469,505,488,513
462473,506,452,511
462477,508,474,539
462481,510,533,508
462485,510,529,486
462489,509,477,480
462493,508,484,506
462496,508,516,504
462500,508,529,500
462504,507,509,487
462509,506,520,529
462513,506,496,540
462517,507,516,496
462521,507,572,500
462525,508,515,511
462529,508,495,551
462533,507,497,517
462537,507,533,490
462541,509,530,474
462545,508,538,523
462550,508,479,526
462553,508,451,542
462557,507,477,514
462561,507,508,473
462565,508,501,457
462569,507,526,497
462573,507,507,552
462577,508,583,542
462581,507,589,518
462585,506,438,468
462589,507,425,466
462594,507,475,490
462598,508,506,482
462602,508,502,481
462605,507,503,509
462609,506,540,537
462613,505,625,573
462617,505,509,526
462621,504,462,478
462625,506,508,578
462629,506,504,550
462633,505,482,487
462638,506,489,451
462642,505,521,564
462646,506,499,495
462650,506,470,444
462654,507,537,507
462658,506,498,463
462661,506,506,482
462665,505,479,513
462669,506,496,523
462673,507,554,533
462678,509,558,532
462682,510,509,528
462686,511,483,493
462690,511,489,491
462694,510,530,496
462698,509,544,546
462702,508,563,577
462706,508,454,499
462710,508,464,480
462714,507,484,455
462717,507,489,490
462722,508,500,532
462726,508,517,551
462730,508,521,499
462734,509,528,482
462738,508,541,509
462742,508,509,519
462746,508,469,493
462750,508,493,479
462754,508,539,499
462758,508,508,502
462763,508,480,516
462767,508,557,561
462771,509,533,503
462774,509,531,510
462778,508,502,526
462782,509,452,501
462786,509,491,498
462790,511,523,496
462794,510,510,506
462798,509,527,579
462802,507,576,554
462807,506,507,484
462811,508,478,462
462815,508,482,502
462819,508,483,521
462823,508,512,514
462827,508,518,496
462830,509,520,478
462834,508,507,493
462838,508,492,500
462842,508,546,554
462846,508,589,542
462851,509,494,476
462855,509,459,477
462859,508,487,535
462863,507,581,606
462867,508,531,516
462871,508,465,442
462875,508,453,465
462879,507,491,529
462883,507,534,533
462886,508,576,564
462891,509,543,529
462895,510,445,460
462899,509,500,516
462903,508,527,528
462907,507,504,471
462911,507,483,463
462915,507,467,484
462919,507,504,505
462923,507,586,554
462927,507,549,522
462931,507,535,563
462936,508,501,532
462940,507,467,474
462943,507,524,482
462947,507,554,529
462951,508,479,506
462955,508,445,508
462959,509,484,501
462963,509,536,493
462967,508,512,489
462971,507,494,543
462976,506,540,552
462980,507,517,537
462984,508,480,456
462988,508,536,506
462992,508,553,542
462996,508,491,503
462999,507,493,474
463003,507,522,497
463007,508,489,493
463011,507,480,513
463015,507,513,527
463020,506,519,505
463024,506,540,508
463028,505,543,564
463032,505,481,560
463036,507,466,474
463040,507,507,478
463044,508,504,467
463048,508,476,512
463052,506,492,517
463055,505,509,531
463059,507,519,513
463064,508,550,493
463068,508,516,525
463072,508,492,515
463076,510,519,521
463080,510,563,512
463084,509,520,504
463088,508,450,494
463092,509,488,528
463096,509,532,522
463100,507,526,491
463105,507,529,517
463109,507,517,553
463112,508,585,576
463116,507,480,492
463120,507,461,452
463124,507,457,459
463128,507,480,493
463132,507,510,543
463136,507,513,531
463140,508,530,470
463144,508,506,470
463149,507,515,516
463153,508,521,519
463157,508,529,497
463161,509,509,495
463165,510,484,510
463168,510,498,514
463172,510,543,549
463176,510,530,524
463180,509,474,461
463184,507,548,531
463188,508,558,565
463193,508,472,480
463197,509,481,468
463201,508,480,482
463205,508,523,573
463209,509,516,580
463213,510,546,519
463217,510,508,468
463221,510,451,432
463224,508,458,467
463228,508,495,474
463233,508,539,484
463237,509,553,495
463241,508,489,499
463245,507,489,544
463249,508,517,537
463253,507,592,558
463257,506,522,495
463261,506,433,464
463265,507,457,509
463269,507,517,528
463273,507,547,495
463278,507,528,510
463281,508,479,503
463285,507,470,517
463289,507,550,523
463293,508,556,553
463297,508,501,519
463301,506,464,482
463305,507,470,476
463309,507,548,489
463313,508,541,478
463318,507,472,485
463322,506,475,519
463326,506,515,519
463330,507,524,503
463334,506,515,494
463337,506,517,541
463341,507,533,543
463345,507,528,530
463349,509,495,485
463353,509,492,508
463357,508,478,499
463362,508,472,499
463366,506,502,491
463370,507,525,519
463374,507,544,524
463378,508,501,532
463382,507,496,526
463386,506,493,466
463390,507,498,462
463393,507,500,492
463397,507,506,531
463401,507,513,534
463406,508,551,506
463410,509,577,504
463414,509,486,502
463418,507,455,501
463422,507,477,507
463426,507,519,496
463430,505,511,494
463434,506,497,508
463438,506,550,572
463442,507,489,543
463447,507,483,474
463450,507,498,470
463454,506,493,508
463458,506,491,520
463462,507,538,529
463466,508,542,516
463470,507,501,499
463474,506,477,490
463478,506,500,502
463482,506,550,524
463486,505,521,494
463491,506,512,522
463495,506,467,501
463499,507,503,522
463503,506,506,498
463506,505,492,496
463510,504,491,513
463514,503,481,510
463518,505,496,497
463522,507,524,509
463526,507,532,498
463531,507,491,497
463535,508,486,516
463539,509,524,503
463543,508,548,499
463547,508,524,534
463551,508,516,555
463555,508,512,527
463559,507,487,482
463562,508,492,467
463566,509,495,487
463570,509,503,516
463575,509,521,534
463579,508,527,514
463583,507,524,493
463587,506,498,497
463591,505,509,548
463595,504,543,548
463599,505,499,488
463603,504,493,473
463607,504,497,479
463611,504,523,557
463616,505,517,544
463619,506,513,483
463623,506,496,474
463627,507,493,497
463631,506,523,531
463635,507,591,550
463639,506,519,499
463643,506,465,474
463647,505,465,498
463651,506,486,519
463655,507,536,531
463660,508,551,541
463664,508,484,498
463668,507,472,500
463672,508,499,535
463675,507,551,538
463679,506,530,494
463683,506,521,484
463687,504,476,498
463691,505,489,506
463695,505,525,493
463699,505,564,537
463704,505,534,544
463708,505,461,505
463712,505,471,495
463716,507,503,477
463720,508,508,479
463724,508,507,509
463728,509,521,545
463731,509,504,509
463735,508,510,477
463739,510,505,479
463744,509,489,508
463748,508,495,520
463752,508,522,523
463756,508,527,519
463760,508,499,485
463764,508,502,494
463768,509,520,485
463772,509,525,502
463776,509,531,498
463780,508,505,510
463784,508,487,527
463788,506,500,525
463792,507,527,509
463796,507,528,490
463800,508,505,503
463804,508,500,507
463808,508,503,491
463812,507,526,487
463816,507,510,489
463820,506,489,517
463824,506,507,514
463828,508,531,506
463833,509,528,495
463837,509,506,490
463841,508,509,502
463844,508,520,514
463848,507,518,523
463852,508,516,503
463856,509,500,503
463860,508,488,520
463864,507,500,520
463868,507,525,496
463873,506,525,486
463877,507,499,500
463881,507,481,511
463885,507,502,508
463889,508,520,493
463893,508,515,485
463897,508,493,495
463900,509,492,512
463904,508,513,508
463908,508,520,490
463912,509,515,480
463917,509,493,498
463921,508,486,507
463925,508,512,516
463929,508,534,500
463933,508,517,504
463937,509,486,518
463941,509,489,526
463945,508,513,514
463949,507,525,500
463953,506,510,503
463956,506,492,522
463961,506,500,519
463965,507,516,505
463969,509,517,493
463973,509,498,500
463977,508,487,512
463981,507,504,508
463985,507,529,494
463989,506,519,480
463993,507,491,486
463997,508,491,499
464002,508,510,508
464006,508,525,492
464010,507,515,483
464013,507,494,493
464017,506,491,509
464021,507,520,503
464025,507,531,491
464029,508,509,485
464033,508,488,504
464037,508,498,519
464041,508,523,514
464046,509,529,496
464050,509,506,494
464054,507,491,510
464058,508,505,518
464062,507,528,505
464066,507,526,494
464069,507,506,497
464073,506,488,515
464077,506,499,517
464081,507,518,498
464086,507,512,488
464090,507,491,501
464094,506,487,516
464098,504,511,511
464102,504,533,495
464106,506,512,493
464110,505,485,505
464114,506,487,518
464118,506,513,515
464122,507,528,501
464125,508,515,500
464130,507,484,518
464134,506,491,525
464138,506,520,516
464142,507,533,497
464146,508,502,502
464150,508,486,519
464154,508,502,531
464158,508,529,520
464162,508,527,505
464166,510,502,511
464171,509,490,524
464175,508,508,523
464179,508,529,507
464182,508,522,499
464186,508,496,508
464190,508,494,521
464194,506,513,519
464198,505,528,504
464202,506,520,499
464206,506,490,508
464210,506,491,521
464215,508,519,523
464219,509,530,509
464223,509,516,507
464227,509,496,525
464231,509,506,533
464235,509,528,521
464238,509,530,505
464242,509,511,507
464246,509,492,520
464250,510,505,524
464254,509,527,512
464259,508,525,499
464263,507,502,506
464267,508,492,521
464271,508,510,523
464275,508,528,507
464279,507,522,498
464283,506,495,510
464287,507,491,527
464291,508,514,522
464294,508,530,508
464299,507,516,504
464303,507,491,513
464307,506,497,526
464311,507,523,515
464315,509,532,505
464319,509,515,507
464323,509,494,526
464327,508,498,533
464331,508,522,520
464335,509,527,505
464339,509,508,509
464344,508,493,525
464348,508,506,528
464351,508,529,512
464355,508,524,498
464359,507,501,504
464363,507,490,518
464367,507,508,520
464371,508,524,504
464375,508,519,497
464379,508,500,509
464384,508,494,521
464388,507,510,512
464392,507,526,497
464396,509,516,495
464400,508,496,509
464404,508,499,523
464407,509,522,515
464411,509,526,502
464415,509,509,502
464419,509,495,517
464423,509,502,526
464428,508,521,515
464432,509,523,500
464436,510,505,504
464440,509,489,519
464444,508,506,525
464448,509,524,511
464452,508,519,500
464456,508,495,506
464460,508,489,521
464463,507,508,521
464467,506,525,505
464472,506,514,498
464476,506,495,510
464480,506,494,524
464484,506,513,519
464488,507,525,502
464492,508,514,499
464496,508,493,515
464500,508,497,526
464504,508,519,518
464508,507,526,502
464513,507,508,502
464517,508,492,519
464520,510,501,529
464524,509,520,515
464528,508,522,500
464532,508,503,507
464536,507,489,522
464540,507,501,524
464544,507,522,510
464548,508,519,500
464552,508,495,508
464557,507,489,523
464561,506,509,523
464565,507,525,505
464569,507,514,496
464573,506,492,510
464576,506,488,524
464580,508,512,518
464584,508,526,500
464588,507,512,497
464592,507,493,512
464596,507,493,524
464601,507,516,516
464605,507,525,500
464609,506,507,502
464613,507,491,518
464617,507,502,526
464621,507,525,514
464625,508,526,500
464629,505,501,504
464632,506,488,521
464636,507,504,524
464641,507,525,507
464645,506,521,496
464649,506,498,506
464653,507,488,520
464657,508,509,519
464661,508,530,502
464665,507,520,495
464669,505,495,506
464673,504,495,520
464677,505,520,515
464681,505,532,500
464686,505,516,499
464689,505,495,513
464693,506,499,524
464697,506,522,516
464701,506,528,500
464705,505,510,500
464709,506,495,518
464713,506,505,526
464717,506,523,513
464721,506,522,499
464726,507,501,506
464730,507,493,524
464734,506,511,526
464738,505,528,509
464742,505,524,499
464745,506,500,508
464749,505,493,520
464753,506,512,516
464757,505,530,501
464761,504,520,494
464765,506,496,507
464770,506,497,520
464774,505,515,512
464778,505,525,497
464782,507,511,494
464786,508,493,509
464790,508,496,520
464794,509,517,513
464798,509,524,498
464801,509,507,500
464805,510,494,518
464809,510,503,522
464814,511,521,508
464818,510,524,496
464822,509,503,503
464826,509,492,517
464830,508,507,519
464834,508,523,506
464838,507,517,496
464842,507,497,505
464846,507,493,521
464850,507,510,520
464855,507,522,497
464858,507,511,491
464862,506,492,505
464866,507,491,518
464870,507,511,513
464874,508,523,497
464878,509,506,495
464882,508,488,510
464886,509,495,520
464890,510,516,512
464894,509,522,498
464899,508,505,503
464903,507,488,519
464907,509,498,524
464911,510,520,511
464914,511,521,498
464918,508,500,503
464922,507,491,520
464926,507,509,524
464930,508,525,509
464934,508,515,495
464939,508,493,505
464943,507,490,518
464947,507,507,516
464951,507,522,501
464955,507,513,493
464959,506,493,507
464963,506,496,520
464967,506,517,514
464970,505,528,498
464974,506,509,495
464978,506,490,511
464983,506,498,522
464987,506,520,514
464991,505,526,500
464995,504,509,505
464999,504,493,521
465003,504,501,525
465007,505,522,511
465011,507,521,497
465015,507,498,504
465019,507,488,520
465022,507,504,522
465026,507,521,503
465030,507,515,493
465034,507,493,503
465038,507,487,517
465042,508,506,515
465046,507,523,497
465050,507,514,493
465054,506,492,506
465058,507,490,517
465062,508,514,507
465067,507,524,491
465071,508,507,490
465075,508,488,507
465078,506,493,518
465081,505,515,508
465085,506,521,495
465089,507,500,498
465093,507,484,516
465097,507,497,522
465101,507,519,508
465105,508,519,498
465110,508,498,504
465114,508,483,516
465118,508,502,519
465122,508,521,504
465126,507,515,496
465130,507,493,507
465133,507,489,521
465136,507,508,516
465140,507,521,497
465144,508,510,493
465148,506,490,506
465153,506,493,517
465157,508,513,510
465161,508,523,494
465165,508,506,492
465169,509,488,510
465173,508,497,519
465177,507,520,509
465181,508,525,497
465185,508,506,499
465188,508,492,515
465191,508,505,522
465196,507,524,508
465200,508,522,496
465204,507,500,503
465208,507,490,518
465212,508,508,517
465216,508,525,501
465220,507,516,492
465224,507,497,504
465228,507,493,519
465232,507,512,516
465236,507,524,501
465241,508,511,494
465244,508,491,505
465247,508,494,517
465251,508,516,511
465255,508,527,495
465259,508,510,494
465263,508,491,512
465267,508,498,522
465271,508,520,512
465275,508,523,498
465280,508,503,502
465284,507,487,519
465288,506,499,525
465292,506,519,511
465296,507,521,500
465299,507,499,507
465303,507,490,524
465307,507,507,525
465311,508,522,506
465315,508,516,497
465319,507,495,508
465324,507,491,523
465328,506,511,517
465332,505,525,501
465336,506,511,497
465340,506,488,509
465344,506,492,521
465348,507,516,514
465352,506,524,498
465355,508,506,498
465359,508,489,514
465363,507,498,523
465368,509,522,513
465372,509,524,500
465376,509,500,503
465380,509,488,520
465384,509,507,525
465388,509,528,511
465392,508,521,496
465396,507,500,505
465400,506,493,520
465404,506,510,521
465409,507,527,503
465412,507,518,493
465416,507,496,505
465420,507,494,521
465424,508,516,517
465428,508,528,500
465432,508,514,494
465436,507,496,509
465440,507,499,521
465444,508,520,510
465448,507,530,493
465453,507,512,494
465457,507,493,512
465461,508,500,519
465465,507,521,509
465468,507,525,496
465472,506,505,500
465476,506,491,518
465480,506,505,522
465484,507,526,507
465488,507,524,497
465492,508,504,507
465497,508,494,521
465501,508,509,518
465505,507,525,503
465509,507,518,497
465513,506,500,509
465517,506,497,522
465521,506,516,517
465524,507,529,500
465528,506,514,495
465532,506,494,507
465537,508,498,517
465541,507,519,509
465545,507,526,496
465549,507,509,496
465553,507,492,512
465557,508,502,520
465561,509,524,508
465565,510,524,494
465569,509,502,499
465573,509,490,517
465577,509,504,521
465581,508,523,507
465585,508,519,499
465589,509,497,509
465593,510,491,524
465597,508,509,523
465601,508,522,503
465605,509,514,494
465609,510,495,506
465613,509,492,519
465617,511,510,514
465622,510,523,498
465626,510,508,493
465630,509,491,509
465634,510,497,521
465637,510,519,511
465641,509,525,495
465645,509,505,496
465649,509,488,513
465653,509,499,522
465657,508,520,510
465661,508,522,498
465666,509,502,506
465670,508,489,522
465674,508,503,525
465678,508,525,509
465682,508,520,497
465686,507,498,506
465690,507,494,521
465693,506,511,516
465697,504,527,500
465701,506,515,493
465705,506,493,505
465710,507,493,517
465714,507,515,512
465718,506,527,497
465722,506,510,494
465726,507,490,508
465730,505,497,518
465734,505,518,507
465738,505,525,493
465742,506,505,496
465746,506,489,513
465750,507,501,520
465754,508,521,507
465758,509,521,495
465762,509,502,502
465766,508,492,520
465770,507,505,521
465774,508,525,505
465778,509,521,495
465782,509,500,506
465786,509,495,523
465790,508,511,521
465795,509,525,504
465799,509,512,496
465803,509,492,507
465806,508,495,521
465810,508,514,512
465814,507,526,496
465818,507,511,494
465822,507,492,509
465826,508,500,520
465830,507,524,510
465835,506,529,494
465839,507,508,495
465843,508,492,512
465847,507,503,518
465851,507,526,506
465855,508,527,495
465859,509,505,502
465862,509,492,518
465866,510,505,520
465870,509,525,506
465874,509,521,495
465879,509,500,505
465883,510,495,520
465887,509,514,518
465891,509,528,500
465895,509,519,494
465899,508,495,508
465903,508,493,520
465907,508,517,513
465911,509,529,497
465915,509,514,496
465918,507,495,509
465923,507,499,517
465927,507,523,508
465931,508,529,494
465935,507,507,497
465939,506,493,513
465943,506,504,518
465947,508,525,506
465951,509,524,497
465955,508,504,505
465959,508,495,520
465964,508,511,522
465968,509,530,509
465972,509,523,498
465975,508,499,509
465979,507,495,523
465983,508,518,522
465987,509,533,503
465991,509,520,496
465995,509,497,509
465999,508,499,522
466003,508,520,514
466008,507,529,497
466012,507,512,494
466016,506,492,510
466020,507,498,517
466024,506,521,505
466028,506,525,490
466031,507,506,496
466035,506,495,515
466039,508,509,522
466043,508,528,507
466048,507,525,495
466052,507,504,502
466056,508,495,519
466060,509,511,523
466064,509,530,508
466068,509,523,498
466072,509,502,511
466076,507,497,524
466080,506,516,518
466084,507,529,501
466087,506,516,496
466092,505,495,508
466096,505,494,519
466100,506,514,512
466104,506,526,496
466108,507,513,497
466112,507,493,510
466116,507,497,517
466120,507,520,506
466124,507,526,493
466128,506,506,495
466132,507,490,512
466137,507,503,518
466141,506,524,506
466144,506,523,496
466148,506,501,505
466152,507,492,522
466156,507,509,522
466160,508,526,507
466164,508,519,499
466168,508,496,509
466172,507,493,523
466177,506,513,520
466181,506,528,503
466185,507,516,497
466189,507,493,510
466193,507,496,522
466197,508,515,515
466200,508,525,497
466204,508,507,494
466208,508,490,510
466212,509,499,519
466216,508,520,505
466221,508,523,491
466225,508,504,497
466229,508,492,515
466233,509,504,521
466237,509,524,508
466241,509,522,497
466245,508,501,505
466249,507,492,521
466253,507,512,523
466256,509,531,507
466260,509,522,497
466265,508,496,507
466269,508,492,520
466273,508,514,517
466277,508,529,501
466281,508,516,496
466285,507,495,507
466289,507,498,517
466293,507,520,510
466297,505,528,495
466301,504,512,497
466306,502,495,515
466310,503,505,523
466313,504,523,508
466317,504,522,493
466321,504,501,499
466325,505,488,517
466329,505,502,522
466333,507,525,506
466337,507,523,496
466341,507,498,505
466345,507,492,522
466350,508,509,521
466354,509,526,507
466358,509,517,498
466362,510,495,511
466366,509,493,524
466369,508,513,518
466373,508,528,500
466377,509,514,495
466381,508,492,509
466385,508,495,521
466390,507,519,512
466394,508,528,496
466398,508,511,496
466402,508,491,511
466406,507,500,518
466410,507,522,507
466414,507,524,493
466418,508,503,499
466422,508,490,516
466425,508,504,520
466429,509,527,508
466434,509,525,499
466438,510,499,506
466442,509,490,519
466446,509,508,519
466450,509,524,503
466454,509,516,498
466458,508,495,510
466462,508,493,523
466466,506,514,518
466470,507,529,499
466475,507,516,494
466479,507,495,510
466482,507,500,523
466486,506,522,514
466490,506,528,496
466494,506,508,494
466498,504,491,509
466502,504,500,517
466506,504,522,506
466510,504,525,494
466514,505,505,500
466519,506,492,517
466523,507,506,520
466527,507,526,507
466531,509,523,496
466535,508,501,508
466538,507,492,524
466542,508,509,520
466546,507,528,503
466550,508,520,497
466554,507,497,511
466558,507,495,526
466563,506,515,520
466567,507,528,504
466571,507,515,499
466575,507,494,512
466579,507,499,523
466583,508,523,515
466587,507,529,500
466591,507,510,499
466594,508,492,515
466598,508,502,522
466603,508,524,509
466607,510,526,496
466611,510,507,501
466615,509,494,517
466619,508,507,519
466623,508,526,504
466627,508,521,494
466631,508,500,506
466635,508,494,523
466639,509,512,520
466643,508,528,506
466648,507,517,499
466651,507,495,511
466655,507,495,525
466659,507,516,518
466663,507,529,500
466667,507,513,497
466671,508,492,512
466675,507,497,522
466679,507,521,513
466683,507,527,496
466688,507,509,497
466692,506,490,514
466696,507,501,520
466700,507,527,509
466703,507,528,497
466707,507,505,506
466711,506,491,520
466715,506,504,522
466719,507,525,507
466723,508,520,497
466727,508,496,504
466732,508,490,520
466736,508,509,521
466740,508,524,505
466744,508,514,497
466748,508,493,511
466752,509,494,526
466756,510,514,519
466759,509,524,502
466763,508,510,499
466767,508,491,513
466771,508,498,525
466776,508,522,516
466780,507,527,500
466784,507,508,501
466788,506,491,515
466792,507,502,521
466796,507,523,508
466800,507,524,494
466804,507,504,500
466808,506,492,516
466812,506,507,518
466816,507,527,507
466820,507,520,498
466824,508,496,506
466828,507,490,520
466832,508,513,518
466836,507,525,505
466840,507,514,503
466844,507,493,516
466848,507,492,524
466852,506,518,515
466856,506,529,502
466861,507,509,502
466865,507,491,516
466869,507,499,523
466872,507,517,514
466876,507,522,497
466880,506,506,498
466884,506,489,514
466888,506,499,519
466892,506,524,504
466896,507,520,493
466900,507,498,501
466905,507,487,519
466909,507,502,521
466913,508,521,505
466917,509,516,496
466921,508,499,506
466925,508,492,521
466928,508,510,514
466932,509,526,496
466936,510,518,496
466940,510,496,511
466945,508,497,526
466949,508,517,521
466953,509,526,502
466957,509,512,497
466961,508,495,512
466965,508,497,521
466969,508,517,507
466973,508,525,493
466977,508,512,497
466981,507,490,515
466984,507,499,523
466989,507,519,508
466993,507,521,494
466997,507,499,500
467001,507,488,517
467005,507,505,519
467009,506,529,503
467013,506,522,496
467017,507,496,509
467021,507,492,526
467025,507,513,524
467030,508,528,504
467034,509,514,497
467038,510,492,511
467041,509,492,524
467045,507,515,516
467049,507,528,499
467053,508,510,497
467057,508,490,513
467061,506,497,520
467065,506,519,509
467069,506,524,494
467074,508,504,494
467078,509,495,506
467082,508,506,515
467086,509,521,505
467090,508,519,493
467094,507,499,500
467097,506,494,515
467101,505,508,520
467105,506,527,507
467109,506,519,500
467113,506,495,509
467118,507,494,524
467122,509,514,520
467126,508,529,502
467130,508,516,498
467134,509,497,512
467138,509,495,524
467142,507,514,513
467146,507,528,500
467150,506,514,501
467153,505,495,515
467158,505,498,522
467162,505,521,508
467166,506,527,496
467170,507,506,502
467174,506,497,517
467178,505,507,515
467182,506,524,503
467186,507,523,493
467190,507,497,500
467194,507,490,515
467198,506,508,519
467203,507,533,504
467207,507,526,495
467210,508,494,511
467214,509,493,522
467218,510,516,519
467222,510,529,502
467226,510,515,498
467230,510,496,511
467234,509,499,521
467238,509,522,513
467243,509,529,501
467247,508,510,500
467251,507,493,516
467255,507,503,522
467259,508,526,511
467263,507,529,496
467266,507,510,499
467270,507,492,516
467274,508,504,520
467278,508,524,504
467282,509,525,491
467287,508,506,497
467291,507,487,517
467295,508,505,518
467299,508,527,503
467303,509,522,495
467307,509,504,507
467311,509,501,520
467315,509,511,513
467319,509,526,497
467322,508,520,498
467326,509,501,516
467331,509,502,528
467335,508,520,516
467339,508,527,499
467343,508,509,498
467347,508,490,514
467351,506,498,519
467355,505,522,508
467359,506,528,494
467363,507,513,495
467367,506,491,513
467372,507,499,519
467376,507,522,505
467379,507,520,494
467383,507,503,501
467387,507,493,517
467391,508,508,518
467395,508,526,504
467399,508,518,496
467403,508,500,506
467407,508,497,521
467411,507,513,520
467416,507,530,501
467420,507,516,497
467424,507,494,515
467428,507,497,524
467432,507,518,512
467435,507,528,495
467439,507,509,494
467443,507,494,512
467447,507,503,519
467451,508,520,511
467456,507,524,497
467460,505,505,500
467464,506,489,512
467468,507,502,518
467472,507,525,507
467476,507,520,493
467480,507,498,503
467484,506,486,521
467488,507,506,522
467491,509,524,504
467495,510,516,495
467500,509,494,507
467504,508,492,520
467508,508,515,518
467512,509,540,496
467516,508,530,493
467520,508,492,519
467524,507,493,532
467528,508,513,520
467532,509,527,511
467536,509,508,507
467540,507,491,509
467545,507,506,511
467548,507,517,508
467552,507,519,499
467556,508,499,504
467560,508,486,517
467564,507,504,522
467568,507,524,506
467572,506,525,493
467576,506,495,501
467580,507,484,518
467585,507,514,515
467589,506,542,495
467593,506,539,491
467597,506,496,511
467601,506,484,533
467604,507,512,529
467608,507,528,511
467612,508,510,502
467616,510,488,511
467620,510,491,522
467624,508,519,513
467629,507,527,501
467633,506,507,511
467637,507,490,525
467641,507,498,525
467645,506,523,509
467649,506,538,490
467653,507,520,490
467657,508,490,515
467660,507,499,519
467664,507,524,508
467668,507,525,503
467673,507,507,512
467677,508,494,524
467681,508,523,516
467685,508,543,501
467689,508,510,500
467693,507,493,519
467697,507,501,539
467701,507,512,530
467705,508,526,498
467709,508,516,493
467714,509,490,512
467717,509,504,517
467721,509,522,502
467725,508,511,491
467729,507,502,516
467733,507,496,543
467737,507,509,527
467741,508,523,499
467745,508,517,495
467749,507,500,511
467753,507,497,529
467758,506,518,526
467762,506,533,499
467766,506,527,516
467770,507,520,550
467773,506,498,545
467777,507,503,509
467781,507,530,491
467785,506,504,496
467789,506,498,540
467793,506,497,561
467798,506,543,557
467802,507,561,525
467806,507,515,518
467810,507,488,530
467814,508,496,535
467818,506,534,519
467822,507,557,505
467826,508,508,507
467829,507,478,549
467833,507,500,556
467837,508,522,512
467842,509,519,498
467846,509,537,540
467850,509,503,560
467854,509,517,526
467858,510,530,510
467862,510,502,525
467866,509,471,517
467870,508,491,497
467874,508,521,519
467878,508,506,487
467883,508,506,461
467886,507,503,515
467890,506,503,540
467894,507,556,559
467898,507,531,511
467902,507,487,472
467906,507,497,527
467910,507,530,558
467914,507,585,567
467918,506,537,529
467922,505,477,490
467927,506,469,511
467931,507,465,471
467935,508,510,486
467939,508,509,479
467942,508,571,527
467946,507,486,496
467950,507,491,503
467954,508,514,473
467958,508,548,524
467962,508,477,497
467966,509,453,498
467971,510,477,492
467975,510,539,471
467979,509,536,497
467983,509,506,521
467987,510,521,581
467991,510,554,543
467995,510,559,496
467998,509,484,473
468002,509,468,474
468006,511,523,505
468011,510,472,480
468015,508,475,471
468019,507,514,593
468023,507,493,539
468027,507,502,544
468031,506,532,509
468035,507,544,522
468039,506,490,514
468043,505,434,465
468047,506,455,461
468051,507,506,517
468055,508,497,471
468059,508,470,460
468063,507,508,505
468067,507,555,545
468071,507,607,628
468075,507,481,507
468079,508,434,432
468083,508,511,501
468087,507,589,579
468091,507,594,556
468096,506,486,473
468100,505,400,447
468104,506,426,470
468107,505,483,526
468110,504,512,443
468114,506,521,469
468118,506,517,589
468122,506,621,620
468126,506,555,559
468130,505,461,422
468134,504,441,411
468139,505,446,454
468143,506,511,525
468147,505,534,510
468151,504,514,469
468155,505,506,482
468159,505,560,529
468162,506,624,596
468165,507,557,524
468169,506,476,446
468173,505,497,520
468177,506,564,634
468182,506,475,559
468186,506,461,428
468190,507,450,416
468194,507,463,515
468198,507,473,473
468202,507,505,437
468206,508,519,426
468210,509,512,465
468214,509,506,509
468217,508,610,608
468220,507,543,540
468225,506,464,443
468229,506,485,472
468233,506,577,559
468237,509,536,537
468241,508,482,493
468245,508,479,472
468249,508,509,535
468253,507,703,732
468257,508,537,564
468261,508,389,382
468265,509,400,404
468270,508,405,501
468273,507,432,435
468276,506,505,444
468280,507,528,481
468284,508,538,493
468288,508,507,505
468292,509,486,495
468296,508,516,492
468300,508,534,481
468304,508,501,505
468308,507,551,559
468313,508,564,586
468317,507,528,571
468321,508,467,501
468325,506,439,416
468328,505,483,483
468331,506,483,517
468335,507,482,475
468339,508,499,499
468343,509,504,510
468347,509,565,518
468352,509,508,476
468356,509,490,447
468360,508,506,475
468364,507,510,545
468368,507,517,580
468372,508,471,466
468376,508,533,470
468380,508,558,558
468383,507,628,598
468387,507,513,532
468391,507,415,453
468396,508,474,467
468400,507,468,542
468404,507,485,592
468408,506,446,463
468412,506,469,389
468416,507,505,419
468420,508,566,570
468424,506,508,508
468428,505,468,443
468432,506,512,441
468436,506,573,519
468440,505,593,549
468444,505,541,573
468448,506,503,514
468452,506,505,501
468456,506,538,567
468460,506,475,564
468464,506,422,483
468468,507,468,455
468472,508,484,459
468476,507,513,491
468481,508,519,535
468485,506,550,567
468489,505,531,475
468493,504,533,455
468496,505,522,510
468500,507,499,532
468504,507,448,480
468508,507,486,473
468512,507,506,455
468516,508,551,496
468520,508,492,545
468525,509,573,557
468529,508,512,497
468533,509,462,528
468537,509,446,597
468541,508,491,487
468545,508,488,468
468549,509,511,496
468552,509,518,468
468556,509,479,503
468560,509,464,459
468564,510,574,506
468569,509,609,536
468573,509,579,476
468577,509,504,529
468581,509,437,500
468585,508,487,505
468589,508,526,495
468593,508,528,533
468597,507,445,531
468601,506,444,460
468605,507,504,457
468609,508,586,573
468613,509,492,540
468617,508,442,528
468621,508,478,489
468625,508,506,442
468629,508,561,470
468633,510,510,550
468637,509,503,519
468641,509,511,492
468645,509,632,558
468649,508,621,570
468654,508,515,536
468658,509,411,469
468662,509,442,449
468665,510,506,481
468669,510,624,622
468673,509,536,527
468677,510,425,461
468681,510,450,475
468685,509,467,472
468689,508,458,526
468694,508,479,495
468698,509,518,505
468702,509,534,512
468706,509,530,470
468710,508,607,530
468714,508,567,539
468718,509,446,462
468721,509,457,458
468725,509,473,471
468729,509,511,494
468733,509,570,539
468738,509,552,562
468742,508,506,509
468746,507,475,504
468750,507,448,529
468754,507,490,508
468758,507,499,463
468762,508,552,569
468766,508,582,607
468770,509,496,501
468774,510,435,427
468777,509,460,417
468782,508,533,486
468786,508,528,497
468790,507,510,523
468794,506,487,501
468798,507,493,465
468802,508,517,467
468806,507,526,519
468810,506,493,536
468814,506,534,594
468818,507,587,601
468823,506,547,535
468827,506,519,487
468831,506,426,448
468834,508,440,497
468838,508,462,448
468842,507,474,433
468846,506,509,471
468850,507,505,526
468854,508,628,607
468858,509,609,558
468862,509,443,471
468867,509,445,494
468871,508,585,651
468875,507,496,472
468879,508,454,406
468883,508,460,440
468887,507,510,541
468890,506,535,540
468894,507,582,552
468898,508,513,492
468902,507,458,522
468907,506,436,462
468911,506,524,528
468915,506,548,537
468919,506,505,489
468923,505,506,455
468927,505,565,548
468931,506,518,475
468935,507,546,460
468939,508,558,485
468943,507,469,516
468946,507,447,506
468951,508,478,487
468955,507,533,505
468959,506,499,502
468963,506,592,698
468967,506,510,531
468971,507,456,418
468975,507,487,455
468979,507,465,567
468983,507,455,470
468987,507,496,438
468992,507,534,468
468996,508,540,480
469000,508,591,556
469003,507,571,577
469007,507,517,495
469011,507,516,463
469015,507,484,480
469019,508,454,499
469023,507,477,512
469027,507,492,531
469031,507,558,543
469036,506,507,493
469040,506,486,518
469044,506,515,623
469048,506,521,534
469052,506,484,424
469056,507,461,423
469059,507,514,478
469063,507,550,538
469067,507,491,494
469071,507,565,524
469075,507,565,569
469080,507,441,493
469084,507,457,478
469088,508,521,561
469092,508,523,480
469096,508,474,448
469100,507,511,502
469104,507,506,534
469108,507,508,482
469112,507,497,497
469115,505,494,573
469120,506,496,498
469124,507,514,521
469128,508,537,475
469132,507,486,460
469136,508,486,501
469140,509,544,574
469144,509,546,520
469148,510,501,451
469152,508,479,484
469156,507,500,520
469160,508,581,579
469165,509,611,562
469169,509,480,481
469172,508,442,470
469176,508,466,518
469180,508,486,544
469184,508,528,533
469188,508,509,485
469192,508,466,470
469196,508,527,554
469200,508,567,533
469204,508,507,466
469209,508,482,467
469213,507,526,549
469217,508,485,495
469221,509,487,481
469225,510,519,474
469228,510,527,499
469232,510,514,545
469236,509,604,603
469240,509,530,537
469244,508,501,499
469249,507,457,509
469253,507,452,494
469257,508,464,528
469261,507,487,454
469265,507,517,452
469269,506,531,522
469273,506,582,608
469277,507,560,579
469281,507,479,435
469284,507,472,429
469288,506,467,470
469293,506,485,516
469297,507,566,535
469301,507,552,501
469305,507,521,508
469309,507,470,494
469313,507,547,550
469317,506,581,591
469321,506,542,504
469325,507,472,471
469329,507,424,514
469334,508,448,525
469338,509,495,522
469341,509,515,486
469345,508,497,477
469349,508,483,513
469353,508,496,533
469357,508,539,506
469361,508,583,514
469365,508,511,483
469369,507,517,483
469373,507,544,550
469378,507,479,480
469382,506,464,459
469386,507,462,483
469390,505,503,536
469394,504,533,529
469397,504,565,512
469401,504,545,546
469405,505,462,515
469409,505,460,480
469413,505,523,518
469417,506,523,491
469422,507,512,504
469426,508,482,510
469430,510,514,553
469434,510,586,521
469438,509,586,500
469442,508,487,470
469446,508,481,491
469450,507,492,522
469453,506,512,495
469457,507,529,522
469462,508,477,502
469466,506,462,503
469470,506,492,500
469474,506,560,538
469478,506,538,526
469482,506,471,503
469486,507,498,494
469490,507,505,498
469494,507,521,479
469498,506,511,490
469502,506,493,502
469507,506,484,520
469510,507,568,609
469514,509,580,536
469518,508,543,485
469522,507,477,499
469526,507,480,495
469530,508,504,494
469534,508,525,490
469538,507,524,512
469542,508,472,517
469547,508,485,512
469551,507,549,532
469555,508,564,604
469559,507,469,501
469563,507,450,466
469566,507,481,477
469570,507,528,485
469574,507,560,501
469578,505,492,490
469582,505,502,526
469586,507,501,514
469591,506,495,483
469595,506,498,517
469599,507,509,542
469603,509,496,510
469607,509,518,483
469611,509,525,483
469615,510,512,499
469619,509,530,552
469622,509,543,568
469626,508,535,538
469630,508,506,469
469635,508,512,500
469639,507,503,507
469643,509,541,551
469647,510,538,541
469651,509,502,492
469655,508,496,544
469659,508,458,498
469663,509,505,476
469667,508,604,504
469671,507,562,528
469676,506,487,536
469679,506,446,510
469683,506,461,489
469687,506,505,496
469691,506,506,504
469695,506,489,503
469699,506,497,516
469703,506,523,509
469707,506,527,495
469711,507,534,530
469715,507,504,514
469720,508,481,506
469724,509,510,505
469728,510,516,502
469732,509,509,509
469735,509,516,541
469739,509,506,540
469743,506,554,510
469747,505,514,499
469751,505,468,495
469755,506,465,502
469760,508,505,521
469764,508,534,509
469768,508,580,532
469772,507,553,573
469776,506,444,490
469780,506,467,468
469784,507,501,474
469787,507,491,524
469790,508,503,525
469794,507,505,508
469798,509,527,516
469803,509,577,535
469807,509,502,498
469811,509,444,480
469815,509,499,513
469819,510,535,527
469823,510,507,522
469827,510,487,490
469831,510,471,486
469835,509,509,516
469839,509,533,511
469842,509,541,499
469846,507,519,528
469850,507,473,529
469854,506,495,524
469858,506,525,512
469862,507,528,495
469866,506,503,511
469870,506,475,523
469874,506,527,533
469878,507,538,500
469882,506,477,473
469886,506,467,491
469891,508,513,538
469895,509,512,520
469898,510,515,505
469901,510,506,483
469905,510,511,517
469909,511,507,509
469913,512,510,489
469917,511,528,484
469921,511,528,502
469925,511,549,559
469929,510,490,524
469934,510,498,493
469938,509,510,491
469942,507,495,518
469946,507,480,529
469950,505,501,507
469953,505,528,498
469956,506,513,502
469960,506,524,549
469964,508,498,550
469968,508,515,491
469972,507,526,458
469977,507,490,475
469981,506,516,561
469985,506,523,522
469989,506,496,477
469993,506,492,466
469997,507,486,486
470001,508,489,521
470005,508,515,548
470008,509,545,524
470011,509,562,522
470016,509,489,510
470020,509,498,569
470024,509,488,501
470028,509,500,466
470032,510,516,482
470036,510,508,540
470040,510,532,564
470044,509,490,493
470048,508,506,498
470052,508,527,488
470056,509,488,497
470061,508,480,507
470064,509,504,502
470067,507,515,481
470071,507,509,503
470075,506,502,545
470079,507,493,500
470083,509,543,499
470087,509,556,503
470091,509,525,512
470095,508,529,558
470099,509,487,520
470104,510,491,489
470108,510,526,498
470112,509,521,533
470116,509,510,532
470119,509,492,514
470123,508,499,487
470127,509,512,473
470131,509,494,520
470135,509,475,518
470139,508,507,526
470144,507,545,501
470148,506,510,492
470152,507,483,521
470156,507,506,521
470160,507,529,494
470164,508,536,496
470168,508,515,503
470172,509,484,487
470175,508,495,503
470179,508,542,505
470183,509,558,489
470188,510,505,507
470192,510,490,547
470196,510,497,534
470200,510,537,508
470204,510,534,509
470208,511,473,492
470212,509,479,525
470216,509,514,533
470220,508,531,517
470224,508,509,470
470228,507,477,472
470232,506,483,504
470236,506,578,550
470240,506,565,536
470244,507,520,482
470248,507,464,472
470252,506,465,487
470256,505,526,518
470260,505,540,503
470264,505,509,490
470268,505,476,495
470273,505,502,521
470277,506,534,523
470281,506,524,493
470285,504,512,519
470288,505,524,548
470292,505,490,539
470296,506,505,488
470300,506,516,492
470304,507,511,490
470308,508,527,537
470312,508,483,507
470317,508,511,488
470321,507,498,476
470325,507,517,527
470329,506,565,572
470333,505,508,519
470337,506,488,459
470341,507,492,457
470344,507,474,492
470348,506,486,528
470352,507,526,518
470356,508,580,553
470361,508,503,501
470365,507,466,477
470369,507,486,504
470373,506,529,503
470377,507,538,497
470381,507,498,510
470385,507,481,517
470389,508,504,526
470393,509,547,529
470397,508,520,512
470401,509,517,533
470405,509,473,507
470409,508,494,514
470413,508,520,493
470417,507,579,530
470421,506,513,538
470425,507,452,490
470429,507,490,486
470433,506,512,471
470437,507,525,493
470441,508,489,513
470446,508,485,528
470450,507,519,523
470454,507,535,495
470457,507,537,502
470461,508,505,508
470465,509,503,549
470469,508,501,504
470473,508,506,483
470477,508,505,495
470481,508,505,544
470486,508,512,518
470490,509,511,493
470494,509,509,489
470498,510,501,482
470502,509,505,517
470506,509,501,509
470510,510,528,498
470513,511,510,498
470517,510,485,518
470521,509,492,525
470525,508,536,573
470530,508,533,501
470534,508,507,464
470538,508,485,486
470542,508,498,538
470546,508,528,508
470550,507,542,518
470554,506,499,481
470558,508,481,514
470562,508,513,526
470566,507,548,524
470569,507,528,509
470574,508,477,482
470578,507,486,493
470582,507,494,513
470586,508,498,492
470590,508,510,485
470594,508,496,502
470598,508,506,551
470602,510,538,549
470606,510,535,498
470610,509,508,484
470615,508,511,515
470619,507,527,573
470623,508,568,552
470626,507,490,450
470630,506,459,437
470634,506,461,469
470638,507,522,530
470642,506,567,550
470646,507,506,488
470650,507,489,498
470654,507,472,534
470659,506,500,512
470663,506,505,488
470667,506,497,465
470671,506,500,531
470675,506,490,530
470679,507,550,509
470682,508,568,500
470686,508,499,484
470690,507,471,497
470694,507,549,603
470699,507,532,550
470703,508,476,466
470707,508,483,469
470711,508,481,478
470715,508,488,499
470719,509,531,516
470723,508,539,518
470727,507,543,509
470731,507,495,523
470735,507,472,546
470738,505,495,506
470743,504,516,470
470747,505,510,481
470751,506,502,528
470755,508,491,506
470759,508,503,493
470763,508,525,523
470767,508,546,538
470771,508,545,543
470775,508,477,478
470779,509,486,468
470784,509,491,478
470788,509,493,493
470792,509,501,532
470795,509,538,545
470799,508,635,570
470803,507,520,486
470807,507,486,521
470811,507,468,515
470815,507,456,467
470819,505,478,464
470823,505,484,467
470828,506,488,531
470832,505,509,530
470836,505,532,494
470840,505,533,491
470844,506,508,492
470848,507,548,552
470851,507,517,544
470855,507,482,482
470859,506,482,462
470863,507,498,484
470867,508,547,554
470872,508,526,557
470876,508,498,486
470880,508,480,459
470884,508,483,498
470888,509,493,564
470892,509,509,515
470896,507,559,510
470900,506,540,510
470904,505,485,518
470907,505,505,521
470912,505,505,516
470916,504,571,534
470920,505,511,495
470924,505,450,489
470928,505,492,498
470932,505,517,492
470936,504,507,473
470940,506,493,478
470944,505,469,517
470948,506,484,532
470952,507,539,515
470957,508,523,485
470961,508,469,487
470964,508,480,521
470968,507,498,531
470972,507,553,519
470976,506,520,493
470980,507,512,500
470984,508,560,529
470988,508,533,585
470992,508,504,513
470996,508,497,467
471001,507,452,467
471005,507,465,505
471009,507,565,559
471013,507,601,556
471017,507,505,490
471020,507,448,478
471024,507,494,475
471028,508,561,563
471032,507,541,531
471036,507,451,472
471041,507,427,480
471045,508,469,507
471049,508,530,530
471053,509,530,516
471057,509,482,479
471061,509,485,500
471065,509,494,490
471069,510,534,496
471073,510,523,489
471076,510,528,518
471080,510,587,558
471085,511,629,583
471089,513,485,485
471093,512,423,447
471097,512,429,474
471101,510,474,523
471105,509,558,580
471109,509,565,532
471113,510,475,483
471117,509,471,514
471121,509,474,543
471126,508,501,477
471130,508,510,461
471133,508,500,521
471137,507,501,519
471141,508,503,498
471145,508,524,477
471149,508,513,466
471153,507,524,518
471157,507,532,559
471161,508,551,542
471165,507,548,507
471170,505,481,475
471174,506,468,496
471178,507,488,542
471182,507,512,554
471186,507,509,480
471189,506,493,497
471193,507,498,557
471197,507,493,498
471201,506,509,482
471205,506,514,485
471209,506,513,487
471214,506,490,501
471218,505,494,502
471222,506,505,471
471226,507,523,473
471230,508,515,502
471234,507,500,541
471238,506,527,525
471242,507,536,510
471245,508,554,542
471249,507,550,556
471254,509,490,528
471258,508,466,510
471262,509,508,489
471266,509,505,484
471270,507,490,502
471274,508,475,552
471278,508,475,494
471282,508,508,466
471286,506,529,484
471290,505,530,558
471294,507,501,527
471299,508,528,504
471302,508,521,495
471306,509,504,505
471310,508,504,523
471314,508,485,502
471318,507,510,506
471322,507,522,504
471326,508,559,546
471330,508,529,543
471334,507,484,532
471339,508,486,470
471343,510,497,459
471347,511,511,512
471351,511,510,570
471355,511,514,542
471358,510,507,476
471362,510,493,471
471366,510,498,512
471370,509,544,556
471374,508,505,498
471378,509,503,484
471383,508,502,499
471387,509,489,506
471391,510,499,523
471395,509,537,540
471399,508,545,515
471403,507,511,497
471407,507,486,516
471411,508,499,504
471414,507,579,513
471418,506,537,490
471422,507,472,500
471427,507,517,575
471431,508,507,510
471435,509,507,520
471439,509,496,468
471443,509,487,469
471447,507,491,504
471451,507,490,523
471455,507,533,514
471459,507,541,512
471463,508,515,521
471468,508,484,528
471472,508,516,484
471476,509,558,485
471480,508,530,497
471484,509,516,521
471488,508,483,527
471492,509,494,519
471496,508,500,498
471500,508,493,494
471504,507,502,526
471508,506,505,515
471513,506,545,537
471517,507,530,524
471521,507,483,466
471524,507,487,511
471528,508,520,550
471532,508,511,483
471536,508,499,451
471540,507,493,483
471544,508,495,504
471548,508,537,528
471553,510,545,520
471557,510,523,494
471561,509,482,490
471565,509,486,522
471569,507,521,538
471573,508,522,488
471577,507,514,509
471580,507,504,535
471584,508,496,528
471588,507,541,551
471592,506,519,466
471597,507,477,446
471601,507,478,488
471605,506,512,511
471609,506,545,515
471613,506,531,516
471617,506,481,490
471621,507,472,505
471625,508,512,524
471629,509,534,508
471633,507,513,489
471636,507,541,549
471641,507,532,586
471645,508,516,515
471649,508,488,455
471653,507,481,472
471657,507,486,506
471661,508,518,549
471665,509,554,553
471669,510,497,478
471673,510,495,476
471677,508,500,503
471682,506,494,548
471686,507,519,551
471690,506,507,453
471693,506,495,454
471697,505,491,488
471701,505,490,512
471705,506,532,509
471709,506,555,539
471713,507,523,525
471717,508,503,511
471721,509,520,525
471726,507,505,495
471730,507,501,494
471734,507,479,503
471738,508,491,492
471742,507,557,516
471746,507,588,533
471749,508,512,547
471753,507,472,510
471757,508,457,489
471761,508,475,482
471766,508,523,498
471770,507,544,548
471774,507,503,501
471778,508,532,545
471782,508,497,485
471786,507,498,448
471790,507,521,486
471794,506,484,512
471798,507,471,505
471802,506,511,514
471805,506,530,492
471810,506,498,485
471814,506,485,514
471818,507,510,532
471822,507,571,585
471826,507,580,528
471830,507,485,489
471834,507,447,486
471838,507,476,480
471842,509,517,489
471846,509,542,543
471851,508,484,515
471855,507,487,533
471859,507,534,523
471862,507,527,488
471866,509,494,469
471870,507,482,494
471874,505,523,537
471878,506,498,506
471882,507,513,500
471886,508,510,507
471890,507,493,551
471895,508,498,530
471899,507,511,537
471903,507,500,508
471907,507,492,480
471911,507,489,469
471915,506,529,500
471918,507,531,510
471922,508,538,534
471926,508,496,494
471930,508,483,516
471934,507,504,507
471939,507,522,511
471943,508,526,515
471947,508,474,502
471951,508,481,526
471955,509,521,512
471959,509,545,491
471963,508,515,494
471967,508,479,520
471971,508,498,536
471974,507,509,527
471979,508,516,484
471983,508,485,484
471987,506,513,551
471991,507,538,529
471995,507,510,485
471999,506,496,454
472003,507,501,478
472007,508,513,518
472011,508,493,529
472015,508,528,557
472019,510,511,499
472024,509,503,497
472028,508,518,527
472031,509,563,547
472035,509,498,497
472039,507,488,497
472043,508,471,523
472047,509,485,505
472051,509,512,504
472055,510,522,490
472059,509,514,497
472064,508,508,523
472068,508,508,525
472072,508,516,494
472076,508,496,495
472080,507,493,504
472084,506,515,533
472087,506,487,499
472091,507,495,468
472095,508,522,477
472099,507,500,492
472103,507,533,547
472108,507,510,516
472112,508,516,490
472116,508,532,516
472120,508,529,560
472124,507,504,536
472128,507,481,493
472132,508,491,480
472136,507,507,491
472140,507,469,508
472143,507,487,510
472147,508,542,510
472152,509,523,489
472156,509,491,483
472160,508,486,516
472164,509,490,570
472168,509,537,518
472172,509,536,480
472176,508,497,466
472180,507,510,507
472184,508,508,533
472188,508,543,542
472193,507,536,495
472197,507,483,482
472200,507,493,537
472204,509,505,536
472208,509,522,495
472212,509,533,506
472216,509,501,585
472220,508,473,514
472224,508,484,454
472228,508,522,490
472232,509,512,499
472237,509,523,520
472241,508,495,524
472245,508,491,472
472249,507,528,471
472253,509,547,538
472256,509,539,567
472260,508,472,514
472264,508,472,463
472268,509,494,455
472272,510,486,473
472276,509,508,507
472281,508,579,579
472285,508,559,556
472289,508,480,476
472293,508,455,521
472297,508,456,498
472301,507,507,504
472305,507,515,510
472309,507,523,485
472312,507,488,468
472316,508,503,511
472321,509,515,525
472325,508,535,515
472329,507,522,493
472333,508,510,519
472337,508,534,540
472341,507,532,545
472345,507,522,489
472349,508,574,527
472353,508,450,491
472357,509,505,539
472361,508,503,497
472366,507,471,471
472369,507,495,511
472373,507,509,565
472377,507,496,530
472381,507,510,472
472385,508,518,490
472389,508,471,481
472393,507,515,558
472397,508,523,546
472401,508,487,454
472406,507,495,450
472410,507,494,483
472414,507,537,557
472418,507,567,536
472422,508,496,475
472425,509,475,466
472429,510,477,520
472433,510,559,584
472437,510,596,581
472441,509,553,524
472445,508,467,487
472450,509,437,495
472454,508,483,575
472458,508,580,551
472462,508,501,457
472466,508,475,489
472470,507,433,474
472474,508,464,487
472478,508,509,491
472481,509,554,540
472485,508,516,492
472489,509,470,464
472494,509,475,473
472498,509,512,474
472502,509,543,543
472506,509,501,514
472510,509,476,511
472514,508,557,517
472518,508,575,523
472522,508,500,501
472526,508,463,508
472530,508,456,509
472535,508,516,527
472538,508,596,607
472542,507,530,545
472546,507,440,445
472550,507,443,450
472554,507,487,477
472558,507,522,488
472562,507,530,515
472566,506,562,587
472570,507,571,565
472574,508,469,455
472579,509,460,435
472583,508,469,475
472587,508,492,524
472591,508,519,513
472594,508,568,517
472598,506,543,495
472602,507,562,560
472606,507,539,575
472610,507,483,493
472614,508,467,490
472619,509,450,469
472623,509,468,489
472627,508,506,533
472631,509,544,512
472635,508,572,500
472639,508,486,476
472643,507,462,500
472647,507,526,533
472650,507,545,530
472654,507,515,506
472658,506,492,510
472663,506,551,605
472667,506,504,489
472671,507,473,434
472675,507,516,471
472679,506,707,663
472683,506,565,591
472687,506,400,443
472691,507,418,416
472695,507,466,465
472699,507,499,505
472704,507,534,555
472707,507,502,520
472711,507,535,483
472715,508,488,476
472719,506,450,543
472723,506,460,487
472727,507,505,454
472731,507,539,468
472735,506,531,498
472739,506,535,580
472743,505,528,525
472748,506,526,490
472752,506,517,481
472756,508,518,496
472760,508,458,493
472763,507,493,494
472767,506,523,501
472771,506,508,488
472775,505,504,530
472779,506,527,545
472783,507,560,557
472787,508,621,554
472792,509,491,472
472796,508,416,464
472800,507,432,470
472804,507,481,512
472808,508,556,575
472812,509,591,523
472816,509,473,461
472819,509,444,453
472823,508,488,469
472827,508,514,469
472832,508,517,486
472836,507,495,511
472840,507,502,512
472844,506,512,495
472848,506,538,508
472852,507,540,528
472856,508,561,567
472860,509,514,521
472864,510,497,515
472868,509,541,588
472871,508,471,466
472875,508,462,464
472879,507,490,477
472883,507,615,628
472887,507,657,573
472891,507,459,462
472895,508,403,432
472899,508,460,457
472903,508,486,466
472907,508,485,480
472911,508,475,503
472915,507,503,524
472920,508,528,522
472924,508,558,527
472927,508,556,527
472930,507,493,519
472934,506,498,546
472938,506,487,474
472942,506,496,468
472946,506,509,521
472950,506,519,517
472954,505,496,499
472958,506,547,521
472963,506,529,542
472967,506,496,493
472971,507,576,560
472975,508,499,495
472979,508,490,468
472982,507,466,480
472985,507,468,495
472989,507,503,535
472993,506,561,551
472997,507,547,512
473001,507,498,479
473006,506,509,544
473010,506,589,606
473014,508,529,511
473018,509,444,424
473022,509,445,509
473026,509,472,522
473030,508,547,508
473034,508,526,490
473037,509,497,473
473040,508,534,547
473044,508,494,511
473049,508,494,497
473053,509,494,461
473057,510,546,538
473061,510,497,504
473065,510,462,491
473069,510,514,520
473073,510,602,584
473077,510,591,569
473081,511,508,505
473085,509,424,453
473090,509,466,458
473093,510,556,522
473096,509,595,573
473100,508,484,519
473104,507,421,471
473108,508,469,499
473112,509,481,498
473116,509,497,472
473120,508,499,498
473124,508,507,494
473128,508,521,473
473133,506,514,479
473137,504,489,482
473141,504,500,520
473145,504,518,520
473148,504,515,492
473151,503,540,490
473155,503,508,520
473159,504,537,575
473163,506,563,607
473167,506,552,518
473171,506,485,485
473176,507,465,523
473180,507,431,481
473184,508,462,495
473188,508,533,469
473192,508,509,523
473196,507,491,517
473200,507,480,488
473203,508,496,473
473207,506,531,472
473211,507,529,508
473216,507,540,547
473220,507,585,569
473224,507,525,504
473228,508,481,484
473232,507,493,489
473236,507,505,538
473240,507,498,559
473244,508,495,508
473248,507,509,499
473252,506,563,561
473256,505,506,538
473260,506,476,534
473264,505,483,481
473268,506,471,461
473272,506,468,454
473276,506,526,527
473280,507,684,610
473284,506,539,504
473288,506,434,445
473292,506,443,477
473296,507,462,498
473300,508,515,496
473305,507,558,515
473309,506,512,500
473313,505,506,541
473316,506,576,576
473320,506,564,597
473324,506,497,547
473328,506,431,426
473332,507,451,455
473336,508,479,501
473340,508,518,493
473345,507,497,465
473349,507,492,471
473353,507,500,520
473357,507,551,574
473361,508,615,519
473365,508,588,489
473369,508,488,507
473372,508,451,524
473376,507,482,524
473380,507,493,500
473384,509,519,487
473389,509,595,606
473393,509,580,617
473397,510,496,537
473401,509,442,440
473405,508,445,468
473409,509,459,510
473413,507,489,483
473417,506,515,482
473421,506,510,505
473425,507,492,516
473428,507,492,492
473433,507,502,484
473437,505,542,475
473441,505,566,502
473445,505,519,505
473449,506,487,516
473453,507,535,549
473457,506,563,533
473461,505,511,503
473465,506,481,524
473469,507,503,547
473474,508,640,601
473478,509,564,528
473482,509,418,432
473485,508,412,453
473489,508,483,550
473493,507,522,582
473497,507,521,448
473501,507,509,438
473505,507,473,482
473509,507,478,494
473513,508,535,529
473518,508,593,553
473522,506,631,569
473526,507,543,540
473530,508,423,475
473534,508,435,456
473538,508,471,471
473541,508,529,545
473545,507,621,659
473549,507,525,619
473553,507,436,454
473558,507,438,409
473562,507,466,446
473566,506,519,528
473570,507,551,544
473574,507,506,459
473578,506,522,466
473582,507,475,493
473586,507,509,539
473590,506,540,526
473594,506,488,466
473597,507,464,460
473602,507,483,507
473606,506,562,557
473610,506,602,549
473614,506,509,489
473618,507,463,476
473622,507,472,507
473626,507,504,541
473630,506,515,508
473634,505,499,476
473638,506,537,597
473643,507,578,589
473647,507,475,468
473651,506,464,418
473654,505,480,459
473658,506,507,534
473662,508,495,504
473666,509,521,494
473670,508,514,477
473674,508,514,493
473678,508,521,536
473682,508,489,511
473687,508,532,493
473691,508,581,521
473695,507,550,519
473699,506,462,522
473703,506,440,490
473707,507,480,472
473710,507,499,472
473714,507,490,522
473718,506,476,523
473722,507,496,487
473726,509,519,463
473731,508,518,466
473735,509,523,528
473739,509,527,548
473743,508,516,505
473747,509,512,476
473751,509,564,558
473755,509,522,554
473759,509,475,487
473763,509,499,484
473766,511,509,468
473771,509,528,495
473775,508,510,531
473779,509,482,526
473783,508,530,518
473787,508,597,528
473791,508,479,495
473795,507,459,512
473799,507,512,545
473803,508,530,516
473807,508,514,461
473811,506,473,467
473816,505,465,488
473820,505,510,505
473823,505,549,550
473827,505,525,504
473831,506,488,485
473835,506,502,527
473839,507,508,503
473843,507,535,497
473847,507,560,517
473851,506,518,524
473856,507,459,500
473860,507,495,493
473864,508,562,525
473868,507,495,521
473872,508,470,540
473876,508,480,508
473879,509,496,486
473883,508,510,476
473887,509,501,501
473891,509,485,507
473895,508,519,513
473900,508,552,545
473904,508,538,542
473908,509,515,481
473912,507,553,545
473916,507,493,496
473920,506,519,480
473924,506,558,520
473928,506,496,517
473932,506,447,491
473935,507,467,478
473939,508,497,473
473944,508,503,494
473948,507,496,514
473952,508,526,557
473956,509,527,557
473960,510,502,467
473964,509,486,476
473968,509,517,543
473972,509,550,556
473976,508,569,561
473980,507,504,509
473985,508,454,453
473989,507,538,526
473992,507,577,577
473996,507,494,480
474000,507,459,440
474004,506,446,461
474008,506,460,491
474012,507,504,509
474016,509,530,500
474020,508,525,497
474024,507,592,609
474029,507,539,581
474033,508,460,460
474037,508,474,440
474041,508,483,470
474045,506,475,521
474048,506,502,507
474052,507,521,491
474056,509,531,483
474060,509,529,508
474064,508,514,534
474068,508,509,531
474073,508,504,490
474077,508,515,456
474081,508,518,481
474085,507,562,562
474089,506,631,615
474093,507,509,534
474097,506,448,471
474101,505,437,472
474104,505,455,491
474108,506,495,501
474113,506,521,504
474117,507,510,496
474121,507,499,512
474125,506,500,512
474129,506,514,495
474133,507,523,483
474137,505,513,479
474141,505,502,506
474145,505,518,508
474149,507,555,485
474153,507,535,493
474158,509,498,494
474161,509,502,529
474165,508,499,543
474169,507,518,525
474173,508,517,507
474177,509,500,509
474181,509,489,526
474185,510,504,522
474189,510,526,506
474193,508,523,496
474198,507,507,501
474202,507,492,521
474206,507,519,506
474210,507,526,489
474214,509,508,481
474217,509,491,498
474221,508,492,503
474225,508,529,498
474229,509,543,494
474233,509,514,495
474237,510,493,502
474242,510,495,506
474246,510,521,501
474250,511,527,488
474254,510,505,488
474258,509,487,509
474262,509,503,513
474266,508,525,503
474270,509,516,490
474273,508,492,496
474277,508,480,510
474281,509,497,507
474286,508,518,494
474290,508,511,482
474294,507,483,498
474298,507,477,513
474302,506,502,510
474306,506,518,493
474310,507,504,485
474314,507,482,502
474318,507,482,514
474322,506,509,504
474327,505,525,488
474330,506,503,491
474334,506,477,505
474338,505,486,513
474342,506,512,504
474346,506,525,491
474350,506,506,490
474354,505,484,507
474358,506,498,514
474362,507,521,501
474366,507,521,488
474371,508,495,493
474375,508,482,507
474379,508,502,509
474383,508,527,494
474386,506,522,485
474390,505,495,497
474394,506,487,511
474398,507,512,508
474402,507,528,492
474406,507,509,482
474411,507,489,501
474415,507,495,514
474419,509,522,512
474423,509,538,502
474427,507,518,504
474431,506,495,520
474435,508,510,528
474439,508,539,517
474442,507,538,506
474446,506,510,508
474450,505,496,520
474455,507,512,527
474459,507,538,513
474463,508,537,502
474467,507,511,506
474471,507,498,523
474475,506,516,525
474479,505,539,511
474483,506,530,501
474487,506,500,510
474491,506,496,523
474496,507,521,521
474499,507,535,505
474503,507,519,499
474507,507,491,509
474511,507,497,523
474515,507,523,519
474519,507,535,504
474523,507,513,506
474527,508,490,523
474531,508,498,530
474535,509,527,517
474540,509,527,505
474544,509,501,508
474548,509,485,523
474552,510,504,530
474555,509,529,518
474559,508,523,504
474563,508,493,511
474567,507,480,524
474571,508,504,524
474575,508,526,507
474579,506,514,498
474584,507,489,509
474588,507,485,521
474592,507,512,520
474596,508,529,506
474600,508,513,501
474604,509,489,514
474607,510,490,526
474610,509,517,521
474614,509,528,504
474618,508,510,502
474622,508,492,520
474627,508,504,529
474631,509,531,520
474635,508,531,504
474639,508,507,508
474643,508,495,526
474647,507,514,531
474651,507,533,513
474655,506,526,501
474659,505,502,510
474662,505,493,524
474665,505,512,523
474670,506,532,508
474674,505,523,499
474678,505,500,512
474682,505,498,527
474686,506,518,521
474690,507,533,505
474694,508,521,500
474698,508,502,516
474702,509,502,527
474706,510,525,519
474711,511,536,505
474715,510,518,507
474718,509,502,524
474721,509,509,528
474725,510,528,515
474729,510,529,502
474733,509,506,508
474737,509,492,523
474741,508,507,527
474745,508,525,512
474749,509,519,500
474754,510,499,502
474758,509,490,519
474762,507,509,524
474766,507,524,503
474770,506,512,495
474773,507,492,510
474776,507,491,526
474780,507,512,521
474784,506,526,504
474788,507,508,500
474792,508,483,514
474797,507,491,524
474801,506,515,515
474805,505,522,502
474809,505,504,505
474813,507,484,522
474817,507,492,528
474821,507,515,513
474825,508,515,498
474828,507,490,506
474831,507,479,522
474835,507,499,525
474840,508,521,511
474844,508,516,502
474848,508,488,510
474852,508,479,522
474856,508,503,522
474860,509,526,506
474864,508,515,498
474868,506,491,508
474872,505,486,520
474876,506,512,515
474881,508,527,500
474884,508,509,496
474888,507,484,510
474892,507,489,521
474896,507,519,513
474900,507,527,499
474904,507,503,499
474908,507,485,516
474912,508,499,524
474916,509,525,512
474920,509,525,499
474925,507,500,506
474929,506,487,521
474933,506,506,524
474937,505,529,508
474940,505,524,496
474944,505,497,504
474948,506,491,522
474952,507,517,521
474956,507,538,503
474960,506,526,496
474964,506,500,510
474969,506,497,523
474973,507,522,516
474977,508,539,499
474981,507,522,497
474985,507,497,510
474989,508,503,521
474993,507,530,514
474996,508,535,499
475000,508,510,500
475004,509,491,518
475009,508,505,527
475013,509,529,515
475017,510,530,501
475021,509,506,505
475025,509,491,521
475029,509,509,525
475033,509,531,510
475037,507,525,499
475041,506,499,508
475045,507,490,522
475049,506,508,520
475053,506,527,503
475057,507,516,494
475061,505,490,507
475065,504,488,519
475069,504,512,514
475073,504,526,498
475077,506,510,495
475081,506,488,511
475085,507,493,521
475089,507,518,512
475094,507,525,497
475098,508,505,499
475102,508,489,516
475106,507,501,522
475109,506,522,509
475113,505,524,497
475117,506,500,503
475121,506,487,521
475125,505,504,522
475129,505,524,506
475133,506,518,497
475138,505,493,507
475142,505,488,521
475146,506,508,519
