488321,509,486,516
488325,509,501,521
488329,509,528,509
488333,510,527,499
488337,508,502,507
488341,507,489,524
488345,507,506,525
488349,507,528,509
488353,509,522,496
488356,509,495,504
488360,509,490,518
488365,508,512,517
488369,507,530,501
488373,507,517,494
488377,505,490,505
488381,505,492,518
488385,505,518,512
488389,505,529,497
488393,505,508,495
488397,505,489,510
488401,506,501,521
488406,507,526,513
488410,507,530,500
488413,507,504,502
488417,508,486,517
488421,507,500,525
488425,508,525,513
488429,508,523,499
488433,508,497,505
488437,508,485,521
488441,508,505,523
488445,509,528,507
488450,509,518,498
488454,509,493,509
488458,508,487,522
488462,508,511,518
488466,507,530,502
488469,507,516,496
488473,508,494,511
488477,508,495,522
488481,507,518,514
488485,508,532,499
488489,509,511,497
488494,508,489,513
488498,507,498,523
488502,507,525,514
488506,508,529,499
488510,509,506,502
488514,508,489,520
488518,509,509,527
488522,509,533,514
488525,509,527,499
488529,509,501,505
488534,507,489,520
488538,507,510,521
488542,507,531,506
488546,507,522,495
488550,507,498,507
488554,507,492,520
488558,508,513,514
488562,507,534,495
488566,507,519,490
488570,507,492,503
488574,506,493,515
488579,506,520,511
488582,507,531,496
488586,509,510,497
488590,508,487,513
488594,508,497,522
488598,507,524,511
488602,507,528,498
488606,508,502,502
488610,507,486,519
488614,508,501,525
488619,507,526,511
488623,508,523,496
488627,510,495,503
488631,509,485,519
488635,507,508,520
488638,507,529,505
488642,506,520,495
488646,507,493,504
488650,508,488,518
488654,506,513,514
488658,508,530,498
488663,509,513,494
488667,508,490,508
488671,508,493,519
488675,507,520,510
488679,507,530,495
488683,507,509,498
488687,507,489,516
488691,507,496,523
488694,508,522,511
488698,507,526,496
488702,507,502,502
488707,508,484,517
488711,509,501,521
488715,509,529,509
488719,509,525,499
488723,509,499,507
488727,510,489,523
488731,510,510,521
488735,510,530,504
488739,510,519,496
488743,508,492,507
488748,508,489,520
488751,507,515,515
488755,507,532,497
488759,507,514,492
488763,507,485,504
488767,508,491,517
488771,508,520,511
488775,509,530,495
488779,508,509,496
488783,507,486,512
488787,508,500,518
488792,507,528,508
488796,508,530,497
488800,508,507,503
488804,507,492,520
488807,508,508,524
488811,508,533,509
488815,509,529,498
488819,508,501,507
488823,508,489,521
488827,508,509,519
488832,509,529,503
488836,508,519,495
488840,508,495,505
488844,508,491,519
488848,508,518,514
488852,508,535,499
488856,508,515,494
488860,507,494,509
488863,506,498,519
488867,505,525,510
488871,505,532,495
488876,505,508,495
488880,506,486,510
488884,505,498,518
488888,505,525,507
488892,507,527,496
488896,505,503,501
488900,506,488,517
488904,506,503,520
488908,507,528,504
488912,507,526,494
488916,507,500,504
488920,507,490,520
488924,507,512,519
488928,506,530,502
488932,506,517,493
488936,507,491,507
488940,506,488,520
488944,506,518,512
488948,506,534,495
488952,505,515,492
488956,505,491,508
488961,505,496,517
488965,505,520,507
488969,506,528,491
488973,506,508,493
488976,507,488,511
488980,508,500,519
488984,508,525,508
488988,508,525,494
488992,508,500,500
488996,508,486,518
489000,507,505,522
489005,506,529,509
489009,507,523,496
489013,507,495,504
489017,508,490,522
489021,508,513,521
489025,508,530,502
489029,508,518,493
489032,507,492,507
489036,507,491,521
489040,507,517,515
489044,507,530,497
489049,507,511,493
489053,507,488,511
489057,507,495,522
489061,506,523,510
489065,507,530,494
489069,508,507,496
489073,508,490,515
489077,509,503,523
489081,509,530,511
489085,508,528,495
489089,507,501,499
489093,507,487,517
489097,507,508,524
489101,508,531,508
489105,508,523,496
489109,508,498,505
489113,507,491,519
489117,507,513,517
489121,507,531,500
489125,508,518,494
489129,508,492,506
489134,508,490,519
489138,508,517,512
489142,507,530,495
489145,507,512,493
489149,507,487,508
489153,507,493,518
489157,507,523,509
489161,509,530,493
489165,508,509,495
489169,509,489,511
489174,508,502,517
489178,508,527,506
489182,507,528,496
489186,508,502,505
489190,508,492,522
489194,508,511,522
489198,508,531,505
489201,508,525,495
489205,507,497,504
489209,507,488,521
489213,508,512,521
489218,507,528,505
489222,507,516,495
489226,507,492,507
489230,506,494,520
489234,506,520,513
489238,506,533,497
489242,506,515,496
489246,505,493,512
489250,507,500,520
489254,507,526,509
489257,507,529,492
489262,507,505,494
489266,507,488,513
489270,506,503,521
489274,507,529,508
489278,506,528,496
489282,506,499,503
489286,507,488,518
489290,508,508,519
489294,508,531,507
489298,508,524,500
489303,508,497,507
489307,509,491,520
489310,510,513,518
489313,511,531,501
489317,509,521,494
489321,508,496,507
489325,507,497,521
489329,508,521,515
489333,508,532,498
489337,508,512,496
489341,507,490,510
489346,507,499,521
489350,508,524,509
489354,508,529,492
489358,509,505,496
489362,508,488,513
489365,508,503,520
489368,509,528,507
489372,510,526,493
489376,509,499,501
489380,507,488,519
489384,505,508,520
489389,506,530,504
489393,507,521,495
489397,507,494,506
489401,507,491,522
489405,507,516,519
489409,508,535,504
489413,509,518,496
489417,509,491,506
489420,508,495,519
489423,507,521,512
489427,507,533,497
489432,507,513,497
489436,506,488,513
489440,506,498,522
489444,506,525,510
489448,506,529,494
489452,505,505,498
489456,506,488,515
489460,506,506,522
489464,507,534,510
489468,507,529,499
489473,507,500,506
489476,507,489,522
489479,507,513,523
489483,508,538,509
489487,508,529,500
489491,508,497,507
489495,508,489,521
489499,507,515,518
489503,507,535,502
489507,508,516,497
489511,508,488,510
489516,507,494,522
489520,507,519,514
489524,507,531,499
489528,507,510,497
489531,506,488,512
489534,506,497,520
489538,507,522,509
489542,507,528,494
489546,508,504,498
489550,508,488,515
489554,509,504,521
489559,509,530,509
489563,509,526,497
489567,508,500,505
489571,507,491,519
489575,509,514,519
489579,510,536,503
489583,509,527,495
489586,508,500,507
489590,507,495,520
489594,507,520,517
489598,508,537,502
489603,506,519,497
489607,506,491,507
489611,507,495,518
489615,506,523,512
489619,506,532,495
489623,506,510,495
489627,506,492,511
489631,506,501,518
489635,506,531,506
489639,506,532,492
489643,507,507,496
489647,508,490,512
489651,507,508,517
489655,507,533,505
489659,507,529,495
489663,508,504,506
489667,508,496,522
489671,508,518,522
489675,509,536,505
489679,508,523,498
489683,508,494,509
489688,507,492,523
489692,507,519,520
489696,508,535,504
489699,507,516,499
489703,505,489,511
489707,504,493,521
489711,505,522,513
489715,507,531,497
489719,507,507,497
489723,508,485,513
489728,508,496,519
489732,507,524,507
489736,508,529,494
489740,510,505,498
489744,509,488,513
489748,509,506,517
489752,510,534,506
489755,510,527,496
489759,510,498,505
489763,510,488,521
489767,509,512,521
489772,510,535,507
489776,510,523,499
489780,509,494,510
489784,509,491,523
489788,508,517,518
489792,507,532,501
489796,507,513,498
489800,508,487,511
489804,506,492,521
489808,506,519,512
489811,506,531,498
489816,506,508,498
489820,505,486,513
489824,504,498,520
489828,505,525,506
489832,505,528,494
489836,506,501,499
489840,507,484,516
489844,507,503,520
489848,507,528,507
489852,507,522,497
489857,507,498,505
489861,507,491,522
489865,507,516,520
489868,508,536,504
489872,508,521,495
489876,509,493,509
489880,509,493,523
489884,509,519,519
489888,507,533,503
489892,507,513,497
489896,506,489,511
489901,507,494,523
489905,508,519,514
489909,509,526,497
489913,508,504,497
489917,508,484,515
489921,508,496,523
489924,509,523,509
489928,508,525,495
489932,509,501,499
489936,510,487,515
489940,509,507,520
489945,509,531,506
489949,509,522,496
489953,509,495,504
489957,509,488,520
489961,511,511,519
489965,511,529,505
489969,511,513,497
489973,509,489,510
489977,507,490,524
489980,507,515,517
489985,508,532,501
489989,506,515,497
489993,506,484,511
489997,506,492,521
490001,506,522,516
490005,506,527,503
490009,506,501,500
490013,506,486,514
490017,506,501,520
490021,506,526,505
490025,508,525,491
490030,508,496,494
490034,508,483,514
490037,507,507,517
490041,507,531,504
490045,506,517,496
490049,506,489,504
490053,506,485,521
490057,506,513,521
490061,507,532,503
490065,506,522,493
490070,506,488,511
490074,505,488,528
490078,506,515,524
490082,507,526,507
490086,507,507,501
490090,508,482,512
490093,507,488,520
490097,508,517,511
490101,507,524,496
490105,507,499,498
490109,507,480,513
490114,506,495,518
490118,505,523,506
490122,506,524,491
490126,506,501,495
490130,506,485,511
490134,507,507,517
490138,507,532,501
490142,507,520,498
490146,507,494,507
490149,507,484,527
490153,507,508,525
490158,507,527,504
490162,508,516,496
490166,508,492,517
490170,508,496,538
490174,506,519,524
490178,508,527,500
490182,508,500,492
490186,507,481,507
490190,508,493,521
490194,510,520,512
490199,510,525,495
490203,510,502,497
490206,509,485,510
490210,509,502,517
490214,509,522,507
490218,509,523,493
490222,509,504,497
490226,509,495,511
490230,508,504,515
490234,509,523,506
490238,509,514,498
490243,509,491,506
490247,509,486,521
490251,509,506,522
490255,509,530,504
490259,509,526,499
490262,509,493,511
490266,509,505,515
490270,508,536,502
490274,508,526,498
490278,508,499,504
490283,508,481,518
490287,508,492,527
490291,507,522,516
490295,506,523,499
490299,506,498,501
490303,506,491,517
490307,505,500,518
490311,505,521,502
490315,505,518,493
490318,505,500,505
490322,506,498,521
490327,506,521,518
490331,507,539,518
490335,507,524,507
490339,507,496,518
490343,509,504,535
490347,509,519,535
490351,508,516,503
490355,508,503,490
490359,508,490,505
490363,507,486,523
490368,505,520,525
490372,505,537,505
490375,506,516,503
490379,506,481,531
490383,506,482,527
490387,505,514,515
490391,505,539,505
490395,505,525,517
490399,505,493,530
490403,504,504,522
490407,506,526,514
490412,508,513,501
490416,507,484,514
490420,507,483,520
490424,508,529,533
490428,507,548,546
490431,508,520,516
490435,507,501,521
490439,508,509,546
490443,508,533,541
490447,509,524,518
490451,509,514,525
490456,509,509,554
490460,509,507,587
490464,508,529,545
490468,508,522,487
490472,507,507,508
490476,507,493,509
490480,507,485,507
490484,507,508,505
490487,508,539,571
490491,508,491,545
490496,507,485,508
490500,508,510,533
490504,507,550,521
490508,507,556,517
490512,507,513,528
490516,507,475,496
490520,508,479,507
490524,508,500,523
490528,509,520,523
490532,509,528,514
490536,509,519,541
490541,510,543,571
490544,510,517,505
490548,509,494,485
490552,509,443,474
490556,508,446,511
490560,508,519,515
490564,508,565,524
490568,508,499,494
490572,507,474,558
490576,507,568,635
490580,507,555,534
490585,508,460,416
490589,508,449,425
490593,507,455,471
490597,507,500,506
490600,508,513,510
490604,507,480,457
490608,507,463,474
490612,507,477,504
490616,507,518,524
490620,508,542,490
490625,509,544,539
490629,509,510,527
490633,509,538,537
490637,509,552,523
490641,509,515,482
490645,508,473,455
490649,507,456,497
490653,508,510,543
490656,508,537,532
490660,507,537,510
490664,507,486,498
490669,507,483,521
490673,507,493,553
490677,507,509,515
490681,508,555,501
490685,509,551,564
490689,509,488,509
490693,509,446,463
490697,509,474,496
490701,508,488,492
490705,507,494,481
490710,505,524,505
490713,506,540,543
490717,507,522,516
490721,506,513,495
490725,507,495,531
490729,507,515,552
490733,508,510,481
490737,508,516,464
490741,507,482,456
490745,506,502,513
490749,507,486,547
490754,508,474,508
490758,507,487,480
490762,507,518,523
490766,506,544,586
490769,507,507,553
490773,508,500,482
490777,509,468,433
490781,508,478,500
490785,508,450,513
490789,508,505,482
490793,508,546,478
490798,509,519,470
490802,508,521,477
490806,506,509,517
490810,506,517,530
490814,506,579,590
490818,508,609,603
490822,509,522,536
490825,508,422,444
490829,507,441,421
490833,507,464,411
490838,506,481,440
490842,506,499,507
490846,505,480,495
490850,504,502,480
490854,505,525,503
490858,505,536,543
490862,506,579,605
490866,506,515,541
490870,507,494,466
490874,507,515,470
490878,506,565,539
490882,506,567,559
490886,505,491,523
490890,505,469,458
490894,506,469,429
490898,505,493,453
490902,506,477,469
490906,507,500,489
490910,508,503,457
490914,508,534,474
490918,507,539,535
490923,507,519,537
490927,506,543,527
490931,506,527,555
490935,507,475,485
490938,508,450,476
490942,509,482,495
490946,509,548,538
490950,510,537,530
490954,508,523,488
490958,508,588,561
490962,508,517,545
490967,508,454,434
490971,507,460,426
490975,507,453,474
490979,507,479,547
490983,507,517,549
490987,506,523,476
490990,507,533,472
490994,507,499,484
490998,508,474,513
491002,509,469,465
491006,510,552,486
491011,510,529,517
491015,509,455,505
491019,509,446,535
491023,508,494,525
491027,507,518,486
491031,508,496,465
491035,508,499,521
491039,507,610,618
491043,507,542,542
491046,507,488,465
491051,506,456,472
491055,506,457,464
491059,507,505,572
491063,508,539,490
491067,508,502,449
491071,509,481,471
491075,508,477,502
491079,507,545,546
491083,508,533,537
491087,507,489,469
491091,508,460,448
491096,508,515,530
491100,507,544,524
491103,507,617,530
491107,507,501,489
491111,507,454,506
491115,506,450,538
491119,506,492,499
491123,507,509,471
491127,507,512,501
491131,507,480,488
491136,507,510,528
491140,507,547,485
491144,508,555,499
491148,507,509,543
491152,506,518,570
491156,505,485,486
491159,504,483,441
491163,505,513,455
491167,504,561,514
491171,504,506,512
491175,506,537,596
491180,506,544,553
491184,507,479,458
491188,507,424,451
491192,507,423,472
491196,507,483,499
491200,507,520,494
491204,509,517,459
491208,509,500,558
491212,509,480,521
491215,508,543,511
491219,508,518,458
491224,507,528,477
491228,507,533,532
491232,506,522,521
491236,506,516,532
491240,506,500,491
491244,507,471,460
491248,507,490,486
491252,507,496,546
491256,509,498,545
491260,509,513,499
491265,507,474,502
491269,506,470,515
491272,506,517,500
491276,506,528,500
491280,506,548,487
491284,506,530,527
491288,507,465,511
491292,508,477,490
491296,508,482,448
491300,508,496,486
491304,507,474,489
491309,508,505,503
491313,508,519,502
491317,509,510,456
491321,509,508,476
491325,508,555,565
491328,508,521,564
491332,509,480,496
491336,509,495,490
491340,509,517,546
491344,510,489,533
491348,509,508,554
491353,507,517,500
491357,507,539,477
491361,507,552,527
491365,507,510,511
491369,506,511,538
491373,507,504,444
491377,508,481,442
491381,508,462,487
491384,506,483,524
491388,506,513,513
491393,507,564,501
491397,508,522,477
491401,508,517,505
491405,510,518,589
491409,510,491,524
491413,509,482,471
491417,508,493,513
491421,507,476,536
491425,507,518,536
491429,508,524,496
491433,507,553,506
491438,507,484,473
491441,507,462,496
491445,507,528,528
491449,507,613,537
491453,507,496,462
491457,506,444,451
491461,506,456,486
491465,506,480,505
491469,506,513,475
491473,506,535,516
491478,507,515,527
491482,507,477,505
491486,507,506,497
491490,507,536,490
491494,508,528,539
491497,509,523,553
491501,507,486,502
491505,507,519,497
491509,507,518,501
491513,507,498,498
491517,508,489,507
491522,508,498,516
491526,508,510,497
491530,508,505,471
491534,507,488,490
491538,506,478,516
491542,506,515,507
491546,507,530,475
491550,507,545,515
491553,506,501,547
491557,506,489,521
491561,507,484,490
491566,507,551,507
491570,507,528,513
491574,507,454,484
491578,508,477,511
491582,507,539,528
491586,507,560,529
491590,508,546,523
491594,508,526,523
491598,508,445,488
491602,507,471,488
491607,507,522,472
491610,507,534,503
491614,506,470,488
491618,506,516,542
491622,505,519,504
491626,506,552,503
491630,505,474,484
491634,505,470,513
491638,506,485,508
491642,506,526,492
491646,507,527,515
491651,507,494,525
491655,507,474,501
491659,508,527,513
491663,509,567,507
491666,509,563,511
491670,508,479,486
491674,508,484,556
491678,508,484,487
491682,508,516,452
491686,508,540,492
491691,508,507,512
491695,507,490,528
491699,507,504,494
491703,508,525,495
491707,509,558,555
491711,510,483,541
491715,509,481,519
491719,510,496,508
491722,509,515,496
491726,509,483,485
491730,507,467,484
491735,507,512,517
491739,506,555,522
491743,506,561,541
491747,506,487,488
491751,506,466,477
491755,506,506,512
491759,507,504,488
491763,506,519,503
491767,507,483,514
491771,509,470,508
491776,509,514,522
491779,508,530,495
491783,509,518,493
491787,509,506,506
491791,508,501,510
491795,509,542,550
491799,508,543,515
491803,508,509,503
491807,507,471,517
491811,506,515,543
491815,506,519,504
491820,507,535,495
491824,507,487,504
491828,507,496,513
491832,507,552,549
491835,505,505,482
491839,505,510,483
491843,506,520,561
491847,506,495,515
491851,506,502,529
491855,507,515,484
491859,507,497,467
491864,508,503,489
491868,508,476,494
491872,507,501,495
491876,507,538,513
491880,506,532,520
491884,507,480,507
491888,507,501,506
491891,508,575,575
491895,509,593,542
491899,509,555,495
491904,508,442,510
491908,507,450,500
491912,508,508,506
491916,508,530,517
491920,507,474,506
491924,506,463,496
491928,506,519,514
491932,507,571,553
491936,507,549,465
491940,507,565,507
491944,508,503,531
491948,508,481,515
491952,508,538,550
491956,509,520,495
491960,509,477,482
491964,508,478,502
491968,508,492,504
491972,508,540,511
491976,507,505,527
491980,508,498,501
491984,507,525,515
491988,507,540,515
491993,507,517,479
491997,508,494,490
492001,510,490,511
492004,510,530,543
492008,510,544,563
492012,509,532,523
492016,509,500,469
492020,509,467,509
492024,509,500,567
492028,508,513,489
492033,508,502,447
492037,508,488,472
492041,506,505,515
492045,505,536,511
492049,505,525,483
492053,507,512,497
492057,508,473,503
492060,509,483,516
492064,508,505,515
492068,509,553,591
492072,509,547,549
492077,508,502,485
492081,509,505,512
492085,508,510,480
492089,507,541,496
492093,508,517,519
492097,508,487,516
492101,508,489,500
492105,510,505,493
492109,509,508,484
492113,507,487,522
492116,507,497,513
492121,507,546,543
492125,507,566,520
492129,508,518,487
492133,508,471,481
492137,506,475,506
492141,506,535,530
492145,508,518,500
492149,508,491,498
492153,509,481,486
492157,509,581,582
492162,509,607,583
492166,508,487,451
492170,507,452,443
492173,507,446,480
492177,508,482,511
492181,508,530,520
492185,507,556,524
492189,508,513,525
492193,509,487,514
492197,511,485,496
492201,510,525,492
492206,509,554,493
492210,508,550,535
492214,507,465,517
492218,508,477,491
492222,509,535,533
492226,510,561,544
492229,508,492,499
492233,507,461,475
492237,508,513,505
492241,508,532,482
492246,508,524,491
492250,506,517,536
492254,506,548,584
492258,507,528,518
492262,506,487,451
492266,506,472,451
492270,505,496,497
492274,507,505,518
492278,506,512,510
492282,506,528,506
492285,505,526,548
492290,506,507,542
492294,505,500,532
492298,506,512,509
492302,508,511,470
492306,507,479,477
492310,508,486,518
492314,506,527,566
492318,505,567,550
492322,505,499,465
492326,505,473,474
492331,505,502,542
492335,505,553,588
492339,506,512,473
492342,507,480,451
492346,506,510,529
492350,508,610,640
492354,507,562,542
492358,508,468,444
492362,507,447,450
492366,506,444,500
492370,506,475,512
492375,506,515,509
492379,507,567,543
492383,507,539,553
492387,507,512,536
492391,507,468,480
492395,505,493,464
492398,505,499,487
492402,507,509,541
492406,507,508,537
492410,507,497,494
492414,508,541,497
492419,508,566,484
492423,507,508,526
492427,506,466,530
492431,507,509,539
492435,508,525,503
492439,508,525,547
492443,507,550,547
492447,507,479,517
492451,507,465,470
492454,507,479,451
492459,507,490,495
492463,509,474,495
492467,509,495,515
492471,511,530,508
492475,511,513,493
492479,510,491,488
492483,508,485,526
492487,508,523,548
492491,507,575,547
492495,507,571,520
492499,507,480,514
492504,508,447,483
492508,508,483,486
492511,510,542,496
492515,509,558,528
492519,508,489,509
492523,507,454,493
492527,508,495,504
492531,509,518,489
492535,509,516,505
492539,509,469,512
492544,510,481,496
492548,509,508,487
492552,509,526,500
492556,509,559,569
492560,509,498,530
492564,509,471,481
492567,509,499,477
492571,510,512,468
492575,509,495,479
492579,508,494,509
492583,508,512,523
492588,507,540,506
492592,506,550,492
492596,507,516,541
492600,506,477,517
492604,506,498,517
492608,506,528,489
492612,506,518,487
492616,507,568,603
492620,506,553,586
492623,506,481,497
492627,507,480,446
492632,506,496,470
492636,506,485,508
492640,506,479,506
492644,507,525,512
492648,508,548,520
492652,508,648,609
492656,507,542,551
492660,507,434,473
492664,507,458,468
492668,507,515,554
492673,506,476,502
492677,506,482,489
492680,506,534,532
492684,507,694,670
492688,508,568,596
492692,508,413,428
492696,508,414,432
492700,507,469,472
492704,508,566,491
492708,507,556,489
492712,505,471,495
492717,505,518,620
492721,506,509,530
492725,506,510,497
492729,506,586,532
492733,507,673,699
492736,508,530,534
492740,509,418,412
492744,508,456,458
492748,507,540,509
492752,509,530,504
492756,508,481,529
492761,507,467,482
492765,507,487,476
492769,508,501,530
492773,508,558,619
492777,508,564,532
492781,508,468,417
492785,508,449,415
492789,508,444,453
492792,509,466,499
492796,509,507,498
492801,508,548,509
492805,508,572,537
492809,508,598,587
492813,509,493,548
492817,510,469,525
492821,509,491,458
492825,509,554,516
492829,508,583,576
492833,508,515,522
492837,508,457,466
492841,508,480,494
492846,509,496,479
492849,509,494,513
492853,507,489,505
492857,508,512,472
492861,508,514,477
492865,509,526,558
492869,509,503,535
492873,508,495,489
492877,509,511,466
492881,509,540,513
492886,509,504,503
492890,508,521,532
492894,507,551,540
492898,506,516,524
492902,507,489,479
492905,506,459,478
492909,506,496,515
492913,507,516,486
492917,506,544,551
492921,505,527,500
492925,505,506,515
492930,505,491,534
492934,506,515,517
492938,507,559,490
492942,507,492,470
492946,506,454,497
492950,506,493,505
492954,506,516,492
492958,506,555,532
492961,506,496,502
492965,507,511,537
492969,507,552,572
492974,507,522,537
492978,506,496,504
492982,506,462,451
492986,505,471,480
492990,505,526,515
492994,505,559,513
492998,505,507,487
493002,504,463,480
493006,505,495,556
493010,506,519,559
493015,506,515,483
493018,506,555,487
493022,505,469,473
493026,506,477,522
493030,506,547,500
493034,506,530,504
493038,506,486,482
493042,506,481,504
493046,506,528,549
493050,507,527,528
493054,509,534,555
493059,509,497,528
493063,508,484,524
493067,509,473,491
493071,510,518,500
493074,510,524,475
493078,510,540,556
493082,510,465,539
493086,509,474,501
493090,509,491,451
493094,509,513,458
493099,508,544,528
493103,507,500,534
493107,508,504,488
493111,507,542,468
493115,508,489,473
493119,508,466,498
493123,506,482,517
493127,507,520,521
493130,506,531,501
493134,505,500,500
493138,506,513,541
493143,507,514,533
493147,507,519,515
493151,507,498,472
493155,507,478,476
493159,508,488,511
493163,508,526,530
493167,507,541,502
493171,508,511,527
493175,508,480,492
493179,508,482,501
493184,508,527,546
493187,507,521,471
493191,508,516,470
493195,508,483,481
493199,507,527,517
493203,506,513,512
493207,507,509,479
493211,506,512,500
493215,506,523,551
493219,506,496,535
493223,506,519,509
493228,505,517,520
493232,506,487,475
493236,505,489,481
493240,506,545,547
493243,507,526,513
493247,507,487,472
493251,507,464,480
493255,506,473,513
493259,506,519,530
493263,505,620,570
493267,505,549,531
493272,505,441,459
493276,506,462,519
493280,506,499,497
493284,507,519,466
493288,507,494,458
493292,507,484,493
493296,506,520,541
493299,506,516,500
493303,507,514,492
493307,508,512,508
493312,508,480,498
493316,508,485,512
493320,508,516,510
493324,509,530,504
493328,509,522,510
493332,508,478,506
493336,508,488,500
493340,509,529,494
493344,509,588,526
493348,510,557,565
493352,509,458,513
493356,509,461,481
493360,509,496,474
493364,508,521,513
493368,507,517,540
493372,506,523,547
493376,507,495,496
493380,507,502,460
493384,507,496,477
493388,506,489,502
493392,505,502,515
493396,506,563,549
493401,507,579,537
493405,507,477,468
493409,506,437,481
493412,506,467,500
493416,508,548,527
493420,508,573,575
493424,508,488,483
493428,507,453,470
493432,508,477,479
493436,509,511,477
493441,509,542,487
493445,508,540,548
493449,508,473,516
493453,509,486,507
493457,509,512,488
493461,507,498,478
493465,506,479,495
493468,507,486,512
493472,508,534,517
493476,508,591,569
493480,507,539,556
493485,507,462,482
493489,507,484,495
493493,507,550,559
493497,508,559,527
493501,508,485,489
493505,507,453,468
493509,508,498,488
493513,508,536,529
493517,507,546,517
493521,507,484,488
493524,507,464,531
493529,506,519,531
493533,507,540,505
493537,508,510,477
493541,508,473,478
493545,509,484,506
493549,510,515,525
493553,510,551,514
493557,509,529,506
493561,508,496,509
493565,508,542,583
493570,507,534,532
493574,508,521,492
493578,507,513,519
493581,507,463,491
493585,508,462,483
493589,509,495,477
493593,508,519,467
493597,507,499,473
493601,507,482,498
493605,507,498,510
493609,507,527,505
493614,507,538,498
493618,509,520,519
493622,509,484,533
493626,510,506,532
493630,510,529,504
493634,509,521,467
493637,509,487,468
493641,509,488,516
493645,508,559,554
493649,508,605,563
493654,507,498,492
493658,507,462,483
493662,507,468,494
493666,507,519,504
493670,508,572,539
493674,508,528,514
493678,506,463,491
493682,506,473,498
493686,508,507,489
493690,508,520,486
493693,508,496,487
493698,509,493,508
493702,509,505,532
493706,511,525,511
493710,511,527,496
493714,511,496,500
493718,511,494,495
493722,511,509,509
493726,511,526,503
493730,510,518,496
493734,509,497,510
493739,508,495,524
493743,508,515,520
493746,507,540,504
493749,508,524,500
493753,507,486,509
493757,507,492,518
493761,507,523,507
493765,507,536,499
493769,508,502,489
493773,507,492,490
493777,507,513,514
493782,507,530,509
493786,507,529,494
493790,507,499,502
493794,506,480,511
493798,506,505,521
493801,507,528,508
493804,507,523,493
493808,508,497,500
493812,508,486,519
493816,509,508,516
493820,509,532,498
493825,510,523,491
493829,509,495,504
493833,508,492,518
493837,509,509,511
493841,509,524,491
493845,509,520,490
493849,509,493,505
493853,509,491,512
493856,508,521,507
493859,508,530,495
493863,507,507,494
493868,506,487,507
493872,507,499,522
493876,507,529,509
493880,507,530,492
493884,507,503,498
493888,507,487,511
493892,508,505,520
493896,509,531,508
493900,509,530,496
493904,509,499,507
493908,509,487,521
493912,509,511,522
493915,510,528,506
493919,508,518,499
493923,508,487,509
493927,508,487,528
493931,508,515,526
493935,508,537,505
493939,509,515,500
493943,508,485,514
493947,507,491,525
493952,508,520,514
493956,509,531,497
493960,509,506,497
493964,508,484,511
493967,506,489,521
493970,506,517,512
493974,506,528,501
493978,507,501,503
493982,507,484,517
493986,508,501,521
493990,508,529,509
493995,508,528,498
493999,509,492,505
494003,509,481,522
494007,509,505,524
494011,509,532,510
494015,509,524,501
494019,510,491,510
494022,510,487,519
494026,509,514,518
494030,507,531,507
494034,507,514,498
494039,506,485,508
494043,506,491,521
494047,507,522,517
494051,506,531,503
494055,506,512,502
494059,507,488,515
494063,507,495,521
494067,506,525,510
494071,507,531,499
494075,508,503,506
494078,507,485,522
494083,507,504,525
494087,507,533,511
494091,508,526,504
494095,508,497,508
494099,507,484,521
494103,505,511,526
494107,505,541,511
494111,506,525,503
494115,507,492,516
494119,507,491,527
494124,507,521,523
494128,508,540,509
494132,508,518,505
494135,507,486,517
494139,507,491,523
494143,507,525,516
494147,506,534,501
494151,505,508,501
494155,505,482,517
494159,505,497,527
494163,506,527,514
494168,506,529,502
494172,505,504,508
494176,506,489,522
494180,506,505,524
494184,506,529,510
494188,507,522,500
494191,507,494,509
494195,507,487,524
494199,506,511,523
494203,506,533,509
494208,507,517,500
494212,507,488,511
494216,507,488,524
494220,508,521,523
494224,508,538,505
494228,509,517,502
494232,508,491,515
494236,507,493,525
494240,507,521,516
494244,507,534,502
494247,506,507,501
494252,505,488,516
494256,506,499,522
494260,507,527,509
494264,507,531,495
494268,507,502,501
494272,509,486,518
494276,509,506,522
494280,509,533,506
494284,507,526,496
494288,507,494,503
494292,508,487,519
494297,507,510,518
494301,508,535,506
494304,508,522,498
494308,508,491,511
494312,507,493,525
494316,507,517,519
494320,508,530,502
494324,507,514,498
494328,506,490,512
494332,506,497,522
494337,504,524,512
494341,505,534,498
494345,505,510,499
494349,505,490,514
494353,505,504,520
494357,505,530,507
494360,506,529,495
494364,507,502,499
494368,507,488,516
494372,508,508,521
494376,508,533,509
494381,508,526,502
494385,509,497,512
494389,509,489,526
494393,509,514,524
494397,510,534,508
494401,510,520,501
494405,509,490,513
494409,509,489,525
494413,509,518,519
494416,509,533,504
494420,509,512,501
494425,509,486,516
494429,509,495,525
494433,509,524,516
494437,509,531,500
494441,508,505,501
494445,508,485,516
494449,507,500,522
494453,507,530,510
494457,508,530,496
494461,508,500,501
494466,506,484,515
494470,506,506,518
494473,506,532,505
494477,506,523,497
494481,508,494,508
494485,508,490,522
494489,507,515,519
494493,508,534,502
494497,506,517,497
494501,505,488,511
494505,505,491,525
494510,506,521,519
494514,506,535,503
494518,505,512,500
494522,505,485,514
494526,505,493,524
494529,506,523,513
494533,506,533,499
494537,506,503,502
494541,506,481,518
494545,507,501,525
494550,507,531,510
494554,508,528,497
494558,508,497,503
494562,509,484,518
494566,509,508,518
494570,509,535,504
494574,509,527,496
494578,508,498,508
494582,509,490,523
494585,509,515,520
494589,509,535,503
494594,509,520,498
494598,510,492,511
494602,510,494,523
494606,509,522,517
494610,508,534,501
494614,507,511,498
494618,508,488,512
494622,509,499,523
494626,508,527,513
494630,506,530,497
494635,507,506,499
494639,506,486,517
494642,507,500,521
494646,507,527,506
494650,506,527,494
494654,506,500,501
494658,507,486,517
494662,508,508,518
494666,508,530,503
494670,508,523,496
494674,507,493,507
494679,507,488,522
494683,507,513,521
494687,507,531,505
494691,508,515,498
494695,508,490,513
494698,507,495,525
494702,506,522,520
494706,505,533,503
494710,506,509,499
494714,507,485,513
494718,508,494,521
494723,509,522,509
494727,509,527,495
494731,508,503,498
494735,507,487,515
494739,507,501,521
494743,507,524,505
494747,506,523,494
494751,506,496,502
494754,506,486,519
494758,505,510,519
494763,506,532,505
494767,506,521,496
494771,507,494,508
494775,507,492,524
494779,506,517,520
494783,507,534,504
494787,507,516,500
494791,508,491,514
494795,507,495,526
494799,507,524,519
494803,508,530,502
494808,507,506,498
494811,507,485,514
494815,507,497,523
494819,508,526,511
494823,506,529,496
494827,506,502,499
494831,505,485,517
494835,506,503,523
494839,506,531,508
494843,507,528,496
494848,507,498,503
494852,508,487,517
494856,508,512,520
494860,508,533,505
494864,509,521,496
494867,508,492,510
494871,509,488,524
494875,509,515,519
494879,510,535,504
494883,510,519,498
494887,510,491,512
494892,509,495,523
494896,509,527,516
494900,510,536,499
494904,510,511,498
494908,509,486,513
494912,508,497,521
494916,507,527,510
494920,507,530,496
494923,509,500,496
494927,509,483,513
494931,508,502,519
494936,509,527,503
494940,509,523,490
494944,508,493,498
494948,508,484,516
494952,506,508,516
494956,506,533,500
494960,507,524,494
494964,507,494,507
494968,506,490,524
494972,506,519,520
494977,507,536,503
494980,506,516,497
494984,505,489,512
494988,506,496,525
494992,508,525,518
494996,508,532,502
495000,507,506,499
495004,507,484,513
495008,507,496,520
495012,506,524,509
495016,506,527,496
495021,506,502,501
495025,508,487,516
495029,508,503,519
495033,506,526,505
495036,506,523,493
495040,508,496,501
495044,507,488,517
495048,506,512,517
495052,506,533,502
495056,507,521,496
495060,507,493,510
495065,507,493,524
495069,506,519,519
495073,507,533,502
495077,508,513,498
495081,507,489,512
495085,508,494,522
495089,508,522,513
495092,508,530,498
495096,507,507,498
495100,507,484,512
495105,505,494,520
495109,506,523,508
495113,507,526,494
495117,509,501,499
495121,508,486,515
495125,507,507,520
495129,507,533,507
495133,506,524,494
495137,506,496,502
495141,507,488,518
495145,508,510,518
495149,507,530,503
495153,507,517,497
495157,507,491,508
495161,508,492,523
495165,508,519,518
495169,509,534,502
495173,509,514,498
495177,508,489,515
495181,508,494,526
495185,508,522,515
495190,507,530,499
495194,507,506,502
495198,507,485,519
495202,506,500,525
495205,506,529,511
495209,506,530,497
495213,506,502,502
495217,507,484,518
495221,506,505,521
495225,505,530,505
495229,507,524,496
495234,507,494,506
495238,507,482,519
495242,508,509,517
495246,508,532,502
495250,508,518,495
495254,508,489,507
495258,509,491,520
495261,510,520,515
495265,509,535,500
495269,509,513,497
495273,508,488,514
495278,508,496,525
495282,508,524,515
495286,509,530,500
495290,508,504,502
495294,507,484,516
495298,507,500,520
495302,507,528,508
495306,507,527,496
495310,506,498,500
495314,506,487,515
495318,507,508,518
495322,507,532,503
495326,506,523,495
495330,505,492,504
495334,506,486,516
495338,506,513,513
495342,507,535,497
495346,507,522,494
495350,507,493,508
495354,508,492,520
495358,509,520,514
495363,509,534,500
495367,508,513,499
495371,507,490,514
495374,509,499,523
495378,509,527,512
495382,509,530,497
495386,509,504,499
495390,508,487,516
495394,508,502,519
495398,509,528,505
495403,509,527,492
495407,510,499,499
495411,510,486,514
495415,510,507,516
495419,509,531,502
495423,508,522,492
495426,508,490,500
495429,509,486,516
495433,511,511,514
495437,511,530,498
495441,510,514,494
495446,509,488,510
495450,509,491,523
495454,510,519,520
495458,511,531,503
495462,510,509,501
495466,511,486,517
495470,511,495,526
495474,511,523,517
495478,510,528,502
495481,509,503,502
495484,509,484,517
495489,509,501,521
495493,509,527,508
495497,509,524,495
495501,508,496,499
495505,507,484,515
495509,506,506,517
495513,506,530,503
495517,506,521,492
495521,505,492,501
495525,505,488,516
495529,506,516,514
495534,506,534,498
495537,506,517,496
495540,506,488,509
495544,508,491,519
495548,509,519,511
495552,510,532,495
495556,508,510,495
495560,507,488,513
495564,508,500,523
495568,508,528,512
495572,507,530,497
495577,506,502,499
495581,507,484,515
495585,507,502,520
495589,507,529,506
495592,508,525,494
495595,507,495,500
495599,507,482,514
495603,507,506,515
495607,505,530,500
495611,505,520,493
495616,507,492,504
495620,508,487,517
495624,508,512,514
495628,508,532,499
495632,508,516,496
495636,509,486,510
495640,509,490,520
495644,508,523,513
495647,508,534,498
495650,507,508,498
495654,507,484,515
495659,507,498,525
495663,508,529,514
495667,509,531,498
495671,508,503,500
495675,507,484,515
495679,507,499,519
495683,508,528,506
495687,507,525,495
495691,508,497,503
495695,509,486,517
495699,508,509,518
495703,508,531,502
495706,507,518,494
495710,506,490,505
495714,506,488,520
495718,506,515,515
495722,508,532,500
495726,508,513,497
495730,508,488,513
495734,508,494,524
495738,508,521,514
495742,509,533,501
495747,509,512,502
495751,507,487,517
495755,508,500,525
495758,509,529,514
495762,510,531,501
495766,511,503,506
495770,508,486,521
495774,507,503,522
495778,509,527,507
495782,509,524,496
495787,508,496,504
495791,506,486,520
495795,506,510,519
495799,507,535,506
495803,507,522,497
495807,506,490,506
495811,507,487,520
495814,507,515,516
495818,508,531,500
495822,509,512,498
495826,509,485,513
495831,509,491,524
495835,507,519,515
495839,507,529,500
495843,507,507,501
495847,507,486,517
495851,507,498,525
495855,508,528,517
495859,507,528,501
495863,507,499,501
495867,508,486,516
495870,507,504,517
495875,508,531,503
495879,509,526,494
495883,509,496,502
495887,509,486,518
495891,509,508,515
495895,508,529,498
495899,507,517,493
495903,506,490,506
495907,507,489,519
495911,507,518,513
495916,507,533,498
495920,508,514,496
495924,507,490,513
495927,506,495,523
495931,508,522,514
495935,508,531,499
495939,509,506,501
495943,508,484,516
495947,507,501,524
495951,507,527,512
495955,508,526,498
495960,508,498,502
495964,508,484,518
495968,508,503,521
495972,509,527,503
495976,509,519,492
495980,508,491,501
495983,508,484,517
495987,508,508,517
495991,508,530,501
495995,507,515,493
496000,508,488,505
496004,508,490,518
496008,509,519,514
496012,509,533,498
496016,508,513,496
496020,508,487,513
496024,509,498,524
496028,509,527,511
496032,509,533,495
496036,508,507,497
496039,507,487,514
496044,507,502,520
496048,507,530,509
496052,508,527,494
496056,507,496,498
496060,507,483,517
496064,508,506,521
496068,508,532,504
496072,508,523,493
496076,509,493,501
496080,506,487,516
496084,506,512,515
496089,507,533,499
496093,507,517,491
496096,507,487,503
496100,506,489,516
496104,506,518,512
496108,507,532,497
496112,507,514,498
496116,506,489,513
496120,508,491,520
496124,507,520,512
496129,507,531,498
496133,507,505,499
496137,508,483,515
496141,508,498,520
496145,509,527,509
496149,508,526,495
496152,507,495,500
496156,506,482,516
496160,506,506,520
496164,506,532,505
496168,508,522,494
496173,509,490,503
496177,508,485,517
496181,508,513,515
496185,507,534,500
496189,507,518,492
496193,508,490,504
496197,508,492,516
496201,508,519,511
496205,509,531,495
496208,508,510,494
496212,508,485,511
496217,508,495,523
496221,508,527,513
496225,509,533,498
496229,509,504,499
496233,509,485,514
496237,509,502,520
496241,509,531,508
496245,509,530,497
496249,507,499,502
496253,507,485,517
496258,506,504,516
496262,506,529,503
496265,505,520,492
496269,506,493,500
496273,506,489,514
496277,505,516,512
496281,505,533,497
496285,506,516,493
496289,506,489,507
496293,506,492,518
496297,506,521,512
496302,508,532,496
496306,508,507,494
496310,507,482,509
496314,508,495,521
496318,508,527,512
496321,509,531,499
496325,509,506,505
496329,509,487,520
496333,509,503,523
496337,508,530,508
496342,508,525,496
496346,507,497,503
496350,505,487,520
496354,506,510,521
496358,508,533,504
496362,508,522,493
496366,507,491,502
496370,506,487,517
496374,505,515,516
496377,506,531,500
496381,507,515,496
496386,506,487,512
496390,505,492,524
496394,506,523,516
496398,507,535,500
496402,508,512,500
496406,508,489,516
496410,508,501,523
496414,508,530,512
496418,508,532,498
496422,508,502,501
496427,508,485,517
496431,508,503,522
496434,508,533,511
496438,509,528,499
496442,509,497,502
496446,507,483,516
496450,508,509,517
496454,507,535,505
496458,508,521,495
496462,507,492,505
496466,506,488,520
496471,508,515,516
496475,507,535,500
496479,506,518,494
496483,506,488,506
496487,507,492,518
496490,508,522,511
496494,507,533,496
496498,508,507,497
496502,507,484,513
496506,506,498,524
496510,507,528,514
496515,508,530,501
496519,508,502,503
496523,509,485,519
496527,509,504,523
496531,509,530,509
496535,509,522,499
496539,509,494,507
496543,509,485,522
496546,507,510,521
496550,507,532,505
496555,506,519,496
496559,506,492,507
496563,506,487,520
496567,506,514,516
496571,507,533,500
496575,506,514,495
496579,506,485,509
496583,508,491,520
496587,509,522,512
496591,508,532,498
496595,508,508,498
496600,508,486,514
496603,507,498,522
496607,508,526,510
496611,507,529,497
496615,506,501,500
496619,506,485,518
496623,506,504,523
496627,507,531,509
496631,507,523,494
496635,507,494,502
496640,507,485,517
496644,507,512,516
496648,507,535,502
496652,507,524,495
496656,507,493,506
496659,509,490,517
496663,509,518,514
496667,507,531,499
496671,507,511,493
496675,508,487,505
496679,507,495,518
496684,507,524,510
496688,507,531,495
496692,506,506,497
496696,506,484,513
496700,507,498,520
496704,508,529,508
496708,508,531,495
496712,508,504,499
496715,507,487,514
496719,508,506,519
496723,509,534,506
496728,509,523,495
496732,509,494,501
496736,511,486,517
496740,511,509,518
496744,510,530,504
496748,508,518,495
496752,508,490,508
496756,507,489,521
496760,506,518,514
496764,507,533,497
496769,508,511,495
496772,508,486,508
496776,508,494,519
496780,508,525,511
496784,508,534,498
496788,509,508,499
496792,509,486,514
496796,508,499,524
496800,508,528,512
496804,509,531,500
496808,508,503,508
496813,508,488,524
496817,509,506,525
496821,508,531,509
496825,507,522,498
496828,508,494,507
496832,507,486,521
496836,507,511,519
496840,507,531,503
496844,508,513,495
496848,508,485,506
496852,507,488,518
496857,506,517,512
496861,507,531,497
496865,507,511,496
496869,507,486,511
496873,507,492,519
496877,508,523,511
496881,508,531,496
496884,507,506,497
496888,507,486,515
496892,508,502,524
496897,507,529,513
496901,508,529,501
496905,508,501,504
496909,507,485,521
496913,507,506,527
496917,506,532,514
496921,507,525,505
496925,508,492,511
496929,508,484,522
496933,508,509,520
496937,507,534,511
496941,507,522,507
496945,507,489,508
496949,507,489,516
496953,507,518,512
496957,506,533,499
496961,506,514,499
496965,506,489,512
496969,506,495,519
496973,506,523,510
496977,507,533,497
496982,508,509,497
496986,508,487,513
496990,508,502,521
496994,509,528,511
496997,509,528,501
497001,509,501,508
497005,508,485,523
497009,508,505,524
497013,508,529,508
497017,509,522,496
497021,509,495,506
497026,509,490,522
497030,508,514,519
497034,507,533,502
497038,507,518,495
497042,506,488,508
497046,506,490,522
497050,507,519,513
497053,506,528,497
497057,504,509,497
497061,504,485,512
497065,505,494,521
497070,507,525,513
497074,507,532,500
497078,508,504,503
497082,506,483,519
497086,506,501,523
497090,508,529,510
497094,509,526,498
497098,510,497,504
497102,509,486,520
497106,509,507,522
497110,509,532,508
497114,509,523,498
497118,507,492,507
497122,507,487,520
497126,507,516,516
497130,508,534,500
497134,508,516,495
497138,507,488,508
497142,507,489,519
497146,506,518,512
497150,506,531,495
497155,507,508,493
497159,507,485,511
497163,507,498,520
497166,507,526,509
497170,508,530,497
497174,508,503,501
497178,507,484,517
497182,508,500,522
497186,509,530,510
497190,509,531,501
497195,508,499,505
497199,508,486,523
497203,508,510,523
497207,509,533,506
497211,509,521,495
497215,508,492,505
497219,508,487,520
497222,507,514,517
497226,507,531,499
497230,507,517,494
497234,507,493,505
497239,505,490,517
497243,504,519,513
497247,505,530,498
497251,506,508,495
497255,506,485,509
497259,506,497,520
497263,506,524,512
497267,508,528,495
497271,508,501,498
497275,507,484,515
497278,507,503,522
497283,508,530,509
497287,508,525,497
497291,508,498,505
497295,507,487,520
497299,507,511,521
497303,507,533,509
497307,507,520,500
497311,507,491,508
497315,507,489,520
497319,507,515,515
497324,506,532,497
497328,508,514,492
497332,508,489,509
497335,508,493,522
497339,508,522,514
497343,508,532,499
497347,509,510,498
497351,508,485,512
497355,508,496,521
497359,507,526,509
497363,507,529,494
497368,509,502,502
497372,509,485,517
497376,509,504,521
497380,510,529,505
497384,510,525,494
497388,510,497,504
497391,510,485,521
497395,509,510,521
497399,508,535,505
497403,506,521,495
497408,506,491,506
497412,505,489,520
497416,506,515,516
497420,507,532,500
497424,506,513,494
497428,507,486,508
497432,507,492,520
497436,506,520,513
497440,507,530,497
497444,507,504,497
497447,507,481,512
497452,508,498,521
497456,508,529,511
497460,507,531,498
497464,507,503,503
497468,507,485,518
497472,506,505,523
497476,506,533,511
497480,506,525,500
497484,507,495,506
497488,507,485,521
497492,508,511,521
497497,508,538,503
497501,507,524,494
497504,506,491,508
497508,506,487,523
497512,506,514,518
497516,506,533,504
497520,505,515,499
497524,506,488,513
497528,506,492,523
497532,505,521,513
497537,505,536,495
497541,504,514,492
497545,506,484,514
497549,507,496,521
497553,508,523,508
497557,507,530,499
497560,507,500,507
497564,508,495,518
497568,509,529,516
497572,508,534,507
497576,506,537,498
497581,507,495,508
497585,508,504,521
497589,509,528,520
497593,508,525,514
497597,507,516,500
497601,507,486,513
497605,509,491,528
497609,509,513,527
497613,508,541,504
497616,507,528,493
497620,506,481,522
497625,506,485,529
497629,508,518,509
497633,508,526,490
497637,508,496,503
497641,506,487,523
497645,505,496,534
497649,507,519,527
497653,508,519,516
497657,508,493,508
497661,509,479,520
497666,509,499,524
497670,509,531,512
497673,509,517,499
497677,508,491,510
497681,508,500,515
497685,508,511,518
497689,508,519,511
497693,507,524,497
497697,507,494,508
497701,507,498,530
497705,508,525,535
497710,507,530,519
497714,507,512,512
497718,508,485,508
497722,507,489,516
497726,507,526,502
497729,508,531,491
497733,508,503,512
497737,507,488,525
497741,507,510,545
497745,508,549,539
497750,509,551,518
497754,507,505,514
497758,507,489,495
497762,508,491,503
497766,508,523,501
497770,507,538,526
497774,507,520,559
497778,508,510,551
497782,509,525,530
497785,509,540,515
497789,508,518,502
497794,508,489,518
497798,508,496,566
497802,506,535,568
497806,507,558,521
497810,507,514,503
497814,507,485,523
497818,508,500,544
497822,508,531,559
497826,508,514,505
497830,507,492,508
497835,507,481,536
497839,506,519,542
497842,506,501,484
497846,506,502,452
497850,507,531,492
497854,508,537,562
497858,508,517,557
497862,508,522,563
497866,508,516,556
497870,508,522,537
497874,506,515,521
497879,505,502,472
497883,506,532,481
497887,507,497,531
497891,506,475,544
497895,507,508,552
497898,507,576,611
497902,508,505,492
497906,508,451,426
497910,507,464,462
497914,508,476,506
497918,508,529,480
497923,508,513,452
497927,507,469,458
497931,507,478,520
497935,507,531,543
497939,507,571,547
497943,508,598,515
497947,508,526,508
497951,508,470,504
497954,508,507,509
497958,509,497,462
497963,508,499,467
497967,507,480,558
497971,507,478,531
497975,508,506,491
497979,508,521,489
497983,508,498,481
497987,508,524,483
497991,507,515,534
497995,506,492,564
497999,507,492,473
498003,506,492,457
498008,506,496,481
498011,506,505,548
498015,507,529,516
498019,509,586,573
498023,509,497,497
498027,508,494,510
498031,507,502,515
498035,507,526,493
498039,507,484,441
498043,507,484,490
498048,507,478,522
498052,506,473,499
498056,507,505,505
498060,509,503,472
498064,509,499,506
498067,508,535,535
498071,508,576,550
498075,507,494,449
498079,507,465,456
498083,507,463,557
498087,506,546,587
498092,507,611,571
498096,508,486,449
498100,509,421,457
498104,508,453,466
498108,508,506,531
498112,507,509,489
498116,507,529,472
498120,507,516,469
498123,507,518,535
498127,507,592,578
498131,507,606,583
498136,507,528,533
498140,508,500,517
498144,508,445,505
498148,507,467,473
498152,507,583,540
498156,507,497,481
498160,508,491,509
498164,508,463,473
498168,509,481,474
498172,509,500,480
498176,508,489,463
498179,508,514,506
498183,508,460,473
498187,508,585,543
498191,508,594,566
498195,508,497,512
498199,508,462,534
498203,508,445,452
498207,507,495,438
498211,507,488,464
498215,508,507,517
498220,509,457,570
498224,509,469,457
498228,508,527,455
498231,508,523,489
498234,510,535,513
498238,510,470,549
498242,510,469,463
498246,508,502,463
498250,509,543,536
498254,508,513,517
498258,508,548,556
498263,508,501,510
498267,507,505,467
498271,507,496,485
498275,507,493,497
498279,508,534,587
498283,509,516,516
498286,510,477,458
498289,509,450,472
498293,508,486,533
498297,507,503,571
498301,507,473,463
498306,507,480,416
498310,508,472,468
498314,508,489,505
498318,507,616,547
498322,506,601,542
498326,506,498,452
498330,506,518,504
498334,507,449,543
498338,508,456,513
498341,509,541,561
498344,509,487,499
498349,508,425,447
498353,508,440,454
498357,507,561,534
498361,509,633,528
498365,508,469,472
498369,507,416,508
498373,507,444,482
498377,505,534,501
498381,505,553,485
498385,506,517,500
498390,506,479,489
498394,506,518,497
498397,506,499,452
498400,505,512,456
498404,505,496,478
498408,506,527,522
498412,507,602,624
498416,507,531,521
498420,506,467,478
498424,507,460,485
498428,505,530,509
498433,505,478,489
498437,506,536,462
498441,506,510,487
498445,506,469,531
498449,507,470,527
498452,507,508,519
498456,507,511,437
498460,507,561,463
498464,506,509,521
498468,507,483,538
498472,507,556,541
498477,508,537,509
498481,508,550,493
498485,508,495,575
498489,507,438,493
498493,507,442,421
498497,507,467,426
498501,507,454,465
498505,507,580,615
498508,507,664,640
498512,507,468,454
498516,506,425,411
498521,506,437,459
498525,506,445,494
498529,507,487,476
498533,508,540,458
498537,508,539,478
498541,508,491,517
498545,507,491,544
498549,508,553,560
498553,508,573,544
498557,508,482,486
498562,507,436,465
498565,506,457,522
498569,506,543,499
498573,506,544,468
498577,505,490,475
498581,505,514,543
498585,505,515,536
498589,505,496,500
498593,506,504,464
498597,507,471,459
498601,508,477,521
498606,508,494,511
498610,509,561,499
498614,508,631,549
498618,507,520,542
498621,507,443,494
498625,508,505,524
498629,508,535,500
498633,508,509,487
498637,508,493,507
498641,509,450,491
498646,510,488,496
498650,510,530,510
498654,509,500,526
498658,508,506,523
498662,508,496,524
498666,507,519,471
498670,506,517,476
498674,506,515,484
498677,507,549,549
498681,506,517,547
498685,506,583,553
498690,506,508,508
498694,506,447,452
498698,507,450,465
498702,507,504,496
498706,507,548,503
498710,508,522,490
498714,508,527,509
498718,508,488,528
498722,507,565,555
498726,507,557,543
498731,508,474,465
498734,507,451,469
498738,508,480,534
498742,509,537,514
498746,507,534,466
498750,508,506,479
498754,508,486,510
498758,508,489,503
498762,507,572,538
498766,507,558,570
498770,506,472,468
498775,505,456,468
498779,505,522,500
498783,505,538,528
498787,505,494,474
498790,507,476,474
498794,507,475,507
498798,507,530,529
498802,508,568,542
498806,510,506,485
498810,508,463,465
498814,507,463,490
498819,507,552,553
498823,508,571,544
498827,507,549,510
498831,507,455,482
498835,508,457,491
498839,508,510,513
498843,508,547,511
498846,507,508,523
498850,507,483,507
498854,506,534,524
498859,507,517,504
498863,509,514,482
498867,508,498,476
498871,506,484,503
498875,506,531,550
498879,507,559,533
498883,507,521,527
498887,507,472,472
498891,507,468,492
498895,507,511,512
498899,508,508,471
498903,508,512,484
498907,508,490,492
498911,506,484,507
498915,507,582,558
498919,508,546,527
498923,507,498,490
498927,506,464,499
498931,507,483,496
498935,508,525,494
498939,508,538,486
498944,509,529,505
498948,509,499,548
498952,509,502,519
498956,508,520,492
498959,507,539,491
498963,506,554,529
498967,506,472,522
498971,506,487,506
498975,506,523,482
498979,506,545,521
498983,507,508,492
498988,507,500,508
498992,507,513,519
498996,507,513,501
499000,507,501,484
499004,507,492,513
499008,506,523,555
499012,507,517,519
499015,507,516,483
499019,508,525,503
499023,508,501,492
499027,507,512,549
499032,508,527,513
499036,510,536,497
499040,510,506,488
499044,509,473,503
499048,509,491,515
499052,508,522,545
499056,508,556,546
499060,508,487,467
499064,508,462,474
499068,508,502,500
499072,507,567,524
499076,508,556,527
499080,507,535,523
499084,507,467,509
499088,507,494,513
499092,507,532,513
499096,507,568,554
499100,508,496,553
499104,509,444,485
499108,509,487,475
499112,508,519,483
499117,508,539,506
499121,508,530,548
499125,509,484,557
499128,510,515,517
499132,509,522,472
499136,509,533,518
499140,509,480,528
499144,509,485,527
499148,509,540,522
499152,508,515,481
499156,506,501,485
499161,506,487,506
499165,507,500,533
499169,507,552,532
499173,507,524,480
499177,507,507,512
499181,508,477,518
499184,507,532,554
499188,505,534,512
499192,506,501,472
499196,507,492,523
499201,507,474,527
499205,507,519,514
499209,508,548,511
499213,508,505,479
499217,507,484,503
499221,508,494,527
499225,507,527,515
499229,507,544,523
499233,506,499,531
499237,507,492,472
499240,506,499,507
499245,507,543,526
499249,507,518,491
499253,508,499,498
499257,507,475,504
499261,507,495,499
499265,506,541,513
499269,507,534,521
499273,506,498,519
499277,505,476,494
499281,505,540,523
499286,507,532,521
499290,508,512,532
499294,507,483,519
499297,508,475,484
499301,508,529,509
499305,508,525,484
499309,508,506,502
499313,508,509,527
499317,508,520,532
499321,507,548,527
499325,507,536,527
499330,508,477,491
499334,508,464,508
499338,509,483,503
499342,510,511,478
499346,509,528,499
499350,508,526,531
499353,507,497,522
499357,508,500,527
499361,508,547,512
499365,508,517,473
499369,509,477,484
499374,509,501,525
499378,509,513,541
499382,509,529,502
499386,508,518,482
499390,507,486,526
499394,508,519,565
499398,509,518,510
499402,511,526,475
499406,511,502,476
499409,509,490,512
499414,508,502,524
499418,510,546,515
499422,509,527,503
499426,508,502,529
499430,507,510,563
499434,507,507,523
499438,508,503,485
499442,507,510,493
499446,507,512,518
499450,506,496,520
499454,506,496,500
499459,507,518,493
499463,507,553,487
499466,507,534,561
499470,507,499,547
499474,506,477,493
499478,505,499,470
499482,506,498,472
499486,507,485,504
499490,507,490,532
499494,507,512,510
499499,508,527,503
499503,507,522,523
499507,505,506,535
499511,505,520,547
499515,506,513,501
499519,507,503,465
499522,508,493,489
499526,509,494,517
499530,507,519,528
499534,506,549,526
499538,507,527,495
499543,506,490,484
499547,507,497,524
499551,507,521,537
499555,508,517,495
499559,508,535,492
499563,506,506,539
499567,506,466,520
499571,505,490,487
499575,505,531,487
499578,506,510,494
499582,507,498,527
499587,508,497,514
499591,509,508,498
499595,509,527,496
499599,508,502,496
499603,509,483,499
499607,509,536,548
499611,508,548,537
499615,509,517,495
499619,509,482,484
499623,508,484,528
499628,508,540,584
499632,507,512,485
499635,507,511,466
499639,507,488,499
499643,507,485,506
499647,507,506,522
499651,507,534,522
499655,507,528,504
499659,507,469,485
499663,507,477,508
499667,508,533,560
499672,508,533,505
499676,508,501,473
499680,507,481,495
499684,506,498,533
499688,505,581,551
499691,506,552,510
499695,507,481,480
499699,508,468,507
499703,509,476,519
499707,509,521,500
499712,508,527,495
499716,506,503,501
499720,506,481,518
499724,505,510,523
499728,504,607,555
499732,505,540,517
499736,506,484,513
499740,507,468,502
499744,506,493,498
499747,506,512,490
499751,505,514,476
499756,504,487,498
499760,505,484,519
499764,505,550,568
499768,506,570,528
499772,508,500,462
499776,508,472,472
499780,507,502,516
499784,508,533,532
499788,508,524,499
499792,508,495,484
499796,509,477,520
499801,508,508,534
499804,507,526,506
499808,508,527,501
499812,508,512,511
499816,508,486,527
499820,508,516,556
499824,507,550,503
499828,508,516,474
499832,509,486,478
499836,509,494,524
499841,510,530,547
499845,509,536,495
499849,508,522,487
499853,507,502,525
499856,507,494,511
499859,508,525,524
499863,508,507,484
499867,508,506,482
499871,508,495,498
499875,507,495,509
499879,508,545,527
499884,509,587,527
499888,510,487,488
499892,510,460,504
499896,508,476,512
499900,508,518,518
499904,506,547,533
499908,506,562,579
499911,506,465,493
499914,507,473,470
499918,507,509,462
499922,506,544,504
499927,505,554,562
499931,506,488,528
499935,506,473,493
499939,505,505,478
499943,505,497,500
499947,505,500,494
499951,505,531,551
499955,506,509,502
499959,507,513,484
499963,508,507,504
499966,509,516,533
499970,508,497,523
499974,508,512,514
499978,508,530,510
499982,508,496,486
499986,507,474,502
499990,507,488,522
499994,508,524,498
499998,508,537,500
500002,508,510,503
500006,507,481,513
500011,506,511,531
500015,506,528,521
500019,506,546,532
500022,506,566,523
500025,505,475,511
500029,505,477,514
500033,506,523,494
500037,506,494,488
500041,505,489,524
500045,506,496,524
500049,507,517,524
500054,507,533,489
500058,508,512,494
500062,507,487,499
500066,508,479,512
500070,508,508,498
500074,508,527,485
500077,507,513,498
500080,508,486,534
500084,507,500,507
500088,506,541,516
500092,507,532,499
500097,508,496,499
500101,508,506,539
500105,508,505,527
500109,507,531,525
500113,507,522,501
500117,507,494,522
500121,506,483,519
500125,506,496,501
500129,506,534,484
500132,508,520,478
500135,508,485,493
500140,508,532,556
500144,508,518,541
500148,508,524,506
500152,509,520,505
500156,509,482,508
500160,507,509,522
500164,506,529,518
500168,508,498,486
500172,509,483,484
500176,509,487,527
500180,509,505,537
500185,509,549,512
500188,510,530,498
500192,509,494,493
500196,508,492,524
500200,507,516,525
500204,507,565,531
500208,507,516,496
500212,508,485,497
500216,507,496,522
500220,507,501,502
500225,507,514,479
500229,507,506,476
500233,506,483,502
500237,507,495,523
500241,508,547,568
500244,508,543,505
500248,509,519,484
500252,509,489,512
500256,509,481,519
500260,509,512,507
500264,508,521,504
500269,507,506,508
500273,507,499,505
500277,508,491,493
500281,508,512,488
500285,508,514,491
500289,508,493,495
500293,509,496,524
500297,509,533,528
500300,508,557,547
500304,508,545,506
500308,507,507,504
500313,507,504,546
500317,507,494,507
500321,507,513,461
500325,508,508,475
500329,508,535,522
500333,508,517,525
500337,508,490,495
500341,508,502,483
500345,508,491,498
500349,509,481,515
500354,509,489,513
500357,508,529,509
500361,507,547,534
500365,507,517,554
500369,507,518,542
500373,507,500,498
500377,509,505,466
500381,509,508,463
500385,509,484,479
500389,509,482,508
500393,510,540,545
500398,508,555,534
500402,507,512,487
500406,508,495,486
500410,508,482,523
500413,508,530,518
500417,507,579,534
500421,508,498,480
500425,509,469,520
500429,508,472,499
500433,508,513,496
500438,509,547,482
500442,509,526,520
500446,510,478,535
500450,508,479,492
500454,509,534,502
500458,509,521,501
500462,509,520,523
500466,508,480,524
500469,508,481,497
500473,507,510,488
500477,507,552,519
500482,506,577,567
500486,505,511,561
500490,506,469,481
500494,506,486,458
500498,506,492,462
500502,506,481,501
500506,506,517,573
500510,506,523,529
500514,507,518,471
500518,507,489,461
500523,507,463,486
500526,507,473,506
500530,507,532,525
500534,506,547,529
500538,505,500,512
500542,505,481,489
500546,505,501,503
500550,505,564,525
500554,506,559,530
500558,507,474,494
500562,509,451,491
500567,508,478,491
500571,509,519,488
500575,508,533,493
500579,509,561,553
500582,510,533,610
500586,508,474,491
500590,507,490,449
500594,507,491,454
500598,509,479,479
500602,508,508,531
500606,509,577,588
500611,509,524,499
500615,509,484,457
500619,508,460,469
500623,507,482,500
500627,507,532,513
500631,506,551,509
500635,507,497,507
500638,507,471,506
500642,507,487,521
500646,508,529,512
500651,507,540,489
500655,507,499,499
500659,507,477,526
500663,506,499,507
500667,507,549,506
500671,507,556,517
500675,508,494,517
500679,508,478,515
500683,507,497,511
500687,506,541,513
500691,507,569,534
500695,508,497,514
500699,508,492,518
500703,509,492,486
500707,509,505,470
500711,509,496,472
500715,508,480,494
500719,509,492,507
500723,509,533,519
500727,509,543,511
500731,509,517,509
500736,507,475,507
500740,507,494,524
500744,507,575,563
500748,507,532,502
500751,508,479,487
500755,508,462,497
500759,509,483,498
500763,510,526,498
500767,509,552,518
500771,509,524,535
500775,508,480,504
500780,506,492,501
500784,506,518,487
500788,506,508,482
500792,507,486,500
500796,506,491,527
500800,507,542,552
500804,508,540,507
500807,507,511,486
500811,506,477,486
500815,506,493,502
500819,506,518,497
500824,506,525,472
500828,508,505,497
500832,508,486,520
500836,507,502,522
500840,508,530,514
500844,507,526,502
500848,506,498,504
500852,505,485,505
500856,505,509,522
500860,505,535,513
500864,506,524,495
500868,507,497,488
500872,508,489,517
500876,507,508,523
500880,506,540,501
500884,506,534,496
500888,506,497,511
500892,507,489,518
500896,507,516,507
500900,507,536,491
500904,507,513,493
500909,507,492,504
500913,506,508,517
500917,507,531,505
500920,507,535,492
500924,506,508,502
500928,506,485,516
500932,505,500,521
500936,506,530,500
500940,507,525,492
500944,508,495,501
500948,507,483,520
500953,507,504,522
500957,508,530,501
500961,507,524,489
500965,508,493,498
500969,508,484,511
500973,508,514,514
500976,509,532,505
500980,507,514,494
500984,506,485,508
500988,506,480,517
500993,506,518,509
500997,507,536,495
501001,506,505,495
501005,506,478,511
501009,506,486,520
501013,507,518,508
501017,509,523,493
501021,508,496,494
501025,508,472,509
501029,508,489,521
501032,507,521,509
501037,509,519,498
501041,509,492,502
501045,509,479,509
501049,509,502,510
501053,509,530,506
501057,509,519,497
501061,508,489,504
501065,508,480,521
501069,509,512,520
501073,507,533,502
501078,507,514,487
501082,507,486,498
501086,509,489,517
501089,509,521,513
501093,509,531,498
501097,508,508,494
501101,508,482,509
501105,508,498,519
501109,509,532,505
501113,510,537,488
501117,510,505,498
501122,508,488,517
501126,508,505,519
501130,508,534,506
501134,510,532,494
501138,510,502,499
501142,508,492,513
501145,509,513,512
501149,509,539,498
501153,509,533,493
501157,509,499,500
501161,508,491,516
501166,508,518,515
501170,507,540,497
501174,508,521,488
501178,508,487,496
501182,508,495,509
501186,507,531,506
501190,506,542,495
501194,506,514,492
501198,505,481,506
501201,507,494,515
501206,507,528,507
501210,506,534,492
501214,505,505,499
501218,506,483,514
501222,508,502,519
501226,508,535,509
501230,507,529,497
501234,507,499,502
501238,507,482,520
501242,506,509,529
501246,507,536,514
501251,508,519,503
501255,508,491,512
501258,508,491,522
501262,507,516,520
501266,506,539,507
501270,507,517,501
501274,507,482,511
501278,507,490,521
501282,506,523,515
501286,507,537,495
501291,507,514,491
501295,506,486,508
501299,506,496,521
501303,506,529,515
501307,506,532,500
501311,506,500,504
501314,507,480,522
501318,508,504,523
501322,509,532,504
501326,508,526,497
501330,508,497,515
501335,507,485,530
501339,507,513,530
501343,506,539,513
501347,505,528,503
501351,504,491,512
501355,505,485,525
501359,508,519,519
501363,507,536,499
501367,508,519,495
501370,508,484,511
501374,508,491,524
501379,509,523,515
501383,508,533,501
501387,507,509,499
501391,508,484,513
501395,508,495,520
501399,508,524,508
501403,508,531,499
501407,508,503,505
501411,507,483,518
501415,506,503,521
501420,507,531,507
501424,506,530,496
501427,505,494,506
501431,506,480,525
501435,507,505,527
501439,508,529,512
501443,510,522,501
501447,509,493,513
501451,509,491,527
501455,507,516,522
501459,507,531,505
501464,507,510,499
501468,508,484,511
501472,508,488,524
501476,508,519,518
501480,507,529,502
501483,506,509,499
501487,506,489,516
501491,508,499,524
501495,508,526,512
501499,508,528,498
501504,507,502,500
501508,507,486,519
501512,507,504,526
501516,508,530,514
501520,508,525,505
501524,508,495,512
501528,508,483,525
501532,508,506,525
501536,508,530,511
501540,508,517,501
501544,509,491,511
501549,510,491,525
501553,509,518,522
501557,508,532,505
501561,508,513,499
501565,508,485,515
501569,509,491,527
501573,508,522,518
501577,507,534,503
501581,506,509,504
501585,505,484,518
501590,506,498,525
501593,506,530,512
501597,506,533,499
501601,505,503,505
501605,506,485,523
501609,506,506,526
501613,506,535,515
501617,507,526,504
501621,508,497,514
501625,509,485,526
501629,509,511,526
501634,509,536,512
501638,509,519,506
501642,508,490,516
501646,507,488,528
501649,507,519,523
501653,507,536,508
501657,507,516,504
501661,506,487,515
501665,506,493,523
501669,506,529,512
501673,506,535,497
501678,506,504,498
501682,505,481,515
501686,506,497,523
501690,507,531,512
501694,508,532,498
501698,507,501,505
501702,506,481,522
501705,507,504,524
501709,507,537,512
501713,508,527,501
501718,508,494,508
501722,509,486,522
501726,509,516,522
501730,508,540,508
501734,508,525,503
501738,508,494,515
501742,508,493,525
501746,508,523,517
501750,508,537,502
501754,507,515,499
501758,507,486,512
501762,507,494,521
501766,508,530,512
501770,509,536,498
501774,509,509,500
501778,507,487,516
501782,507,499,522
501786,507,529,511
501790,507,531,501
501794,507,500,507
501798,507,488,520
501803,507,507,521
501807,508,534,508
501811,508,525,500
501815,508,493,509
501818,508,486,522
501822,508,512,519
501826,508,533,506
501830,507,518,502
501834,507,490,513
501838,508,492,525
501842,508,520,519
501847,510,533,502
501851,509,513,498
501855,507,487,512
501859,508,496,522
501863,508,525,513
501867,509,532,496
501871,509,508,496
501874,508,489,514
501878,509,503,520
501882,508,529,508
501886,509,528,497
501891,508,500,503
501895,508,486,519
501899,508,507,522
501903,508,533,508
501907,508,528,499
501911,508,501,509
501915,509,495,523
501919,509,514,522
501923,508,529,505
501927,508,513,501
501931,508,488,515
501935,508,491,526
501939,510,518,519
501943,509,527,501
501947,509,507,497
501951,508,486,512
501955,508,496,522
501959,509,522,511
501963,509,526,496
501967,509,500,499
501971,508,481,515
501976,507,497,521
501980,507,523,509
501984,507,519,498
501987,507,491,506
501991,506,478,521
501995,506,505,524
501999,507,532,512
502003,506,520,502
502007,506,489,510
502011,506,482,524
502016,506,509,523
502020,507,531,508
502024,506,512,501
502028,506,483,513
502032,506,486,523
502036,506,517,517
502040,505,530,500
502043,505,505,498
502047,506,479,513
502051,507,491,524
502055,506,521,513
502060,506,525,498
502064,507,496,500
502068,506,476,516
502072,507,495,521
502076,508,526,508
502080,509,524,498
502084,509,493,506
502088,508,479,519
502092,508,507,521
502096,508,533,507
502099,506,521,497
502104,506,486,507
502108,507,481,520
502112,507,515,516
502116,507,537,500
502120,508,517,495
502124,508,485,509
502128,507,488,520
502132,506,522,513
502136,505,536,499
502140,506,508,498
502145,508,481,510
502149,507,496,518
502153,506,530,511
502156,506,532,497
502160,505,503,499
502164,506,483,514
502168,507,503,519
502172,508,531,505
502176,508,526,494
502180,509,495,502
502184,509,483,517
502189,508,508,517
502193,507,532,503
502197,508,519,494
502201,509,489,506
502205,509,486,522
502209,509,517,518
502212,509,537,504
502216,509,518,499
502220,509,488,512
502224,508,491,523
502228,507,518,512
502233,506,529,496
502237,506,505,497
502241,506,483,511
502245,505,497,521
502249,506,529,511
502253,506,532,496
502257,507,502,498
502261,508,483,515
502265,507,502,520
502268,507,528,506
502273,508,524,496
502277,506,496,505
502281,506,487,520
502285,506,511,521
502289,507,535,508
502293,507,522,500
502297,507,491,510
502301,507,490,524
502305,507,519,521
502309,507,535,507
502313,506,513,502
502318,508,483,511
502322,508,492,523
502325,507,522,515
502329,507,531,498
502333,507,506,496
502337,508,484,509
502341,508,497,517
502345,508,525,506
502349,508,526,493
502353,507,499,497
502358,506,486,515
502362,507,507,521
502366,509,533,508
502370,508,525,496
502374,508,495,505
502378,509,484,519
502381,508,510,517
502385,509,532,502
502389,509,519,498
502393,509,486,510
502397,509,486,521
502402,509,516,516
502406,510,532,501
502410,509,513,500
502414,508,486,514
502418,508,493,523
502422,508,524,514
502426,509,533,498
502430,508,506,498
502434,509,484,514
502437,508,501,521
502441,509,531,508
502446,508,530,493
502450,508,499,496
502454,508,481,512
502458,508,503,517
502462,509,532,501
502466,508,526,493
502470,508,494,503
502474,508,485,519
502478,506,514,519
502482,507,536,504
502487,508,519,499
502491,507,486,511
502494,507,486,523
502498,509,518,518
502502,509,534,503
502506,508,511,499
502510,506,483,514
502514,507,493,525
502518,506,523,516
502522,505,529,502
502526,505,503,501
502531,506,483,514
502535,507,498,519
502539,507,529,506
502543,507,528,492
502547,507,496,498
502550,505,479,515
502554,505,503,519
502558,506,532,506
502562,507,521,496
502566,509,488,503
502571,508,480,518
502575,508,510,518
502579,508,533,504
502583,508,516,497
502587,507,486,511
502591,506,486,523
502595,506,518,518
502599,508,536,503
502603,509,513,501
502606,508,483,513
502610,507,493,523
502615,507,522,514
502619,508,530,500
502623,508,502,500
502627,507,483,517
502631,507,500,522
502635,507,532,511
502639,507,532,498
502643,507,501,503
502647,507,485,519
502651,507,505,520
502656,507,533,505
502660,507,522,495
502663,506,492,505
502667,506,485,521
502671,506,512,518
502675,508,534,502
502679,509,521,497
502683,509,490,509
502687,509,491,522
502691,509,520,516
502695,509,533,501
502700,508,512,497
502704,507,488,512
502708,507,496,522
502712,507,524,513
502716,506,532,495
502719,506,507,497
502723,506,485,513
502727,507,499,518
502731,506,528,505
502735,507,527,493
502739,508,496,497
502744,507,483,512
502748,508,506,515
502752,509,532,501
502756,508,524,494
502760,508,495,504
502764,506,487,518
502768,507,513,517
502772,508,533,504
502775,509,518,498
502779,510,489,509
502784,510,492,523
502788,509,523,516
502792,509,534,501
502796,508,510,497
502800,508,486,510
502804,509,494,519
502808,509,525,510
502812,509,531,496
502816,508,504,499
502820,508,484,516
502824,506,501,523
502829,506,527,509
502832,506,525,492
502836,508,496,498
502840,508,485,515
502844,507,508,516
502848,507,532,502
502852,507,521,493
502856,508,492,504
502860,507,488,519
502864,507,514,515
502868,506,535,502
502873,506,517,497
502877,506,488,509
502881,506,490,519
502885,508,520,513
502888,508,530,497
502892,508,505,496
502896,507,483,513
502900,506,496,524
502904,506,525,513
502908,506,530,496
502913,508,504,498
502917,508,484,513
502921,508,501,519
502925,510,530,507
502929,510,525,493
502933,510,493,498
502937,509,481,512
502940,508,509,516
502943,508,533,503
502947,508,521,496
502951,508,490,507
502956,507,483,522
502960,507,512,519
502964,507,534,504
502968,507,516,498
502972,507,484,512
502976,508,490,523
502980,508,525,516
502984,508,535,499
502988,509,510,499
502992,509,484,514
502995,508,492,521
502999,509,525,511
503003,510,531,499
503007,509,500,500
503011,509,479,514
503015,507,499,518
503019,507,529,505
503023,507,526,495
503027,506,496,504
503031,506,483,520
503035,506,508,521
503040,507,533,504
503044,507,520,494
503048,506,490,507
503051,506,485,520
503054,507,514,519
503058,508,534,506
503062,508,517,504
503066,508,491,518
503070,508,494,526
503074,508,524,515
503078,509,536,500
503083,509,512,501
503087,508,488,516
503091,507,500,523
503095,506,531,511
503099,506,532,496
503103,506,503,498
503106,505,485,513
503109,506,503,518
503113,506,529,504
503117,505,523,493
503121,507,493,500
503126,507,485,515
503130,507,511,514
503134,509,532,499
503138,509,519,493
503142,509,490,503
503146,508,488,518
503150,507,517,514
503154,508,534,498
503158,508,516,493
503161,509,488,507
503164,508,491,518
503169,507,522,512
503173,507,534,498
503177,507,509,497
503181,508,486,513
503185,508,498,518
503189,507,528,507
503193,507,529,494
503197,505,501,499
503201,504,485,514
503205,504,505,518
503209,504,530,501
503214,506,523,489
503217,508,494,497
503220,507,483,514
503224,507,510,513
503228,507,534,498
503232,506,520,491
503236,506,489,504
503240,506,489,518
503244,506,519,515
503248,506,535,499
503252,507,515,497
503257,506,486,513
503261,507,491,524
503265,508,521,512
503269,507,529,495
503272,508,504,495
503276,507,482,514
503280,507,495,520
503284,507,524,505
503288,507,526,493
503292,508,497,497
503297,508,481,513
503301,508,502,515
503305,508,527,501
503309,507,522,491
503313,507,492,498
503317,507,483,513
503321,508,510,514
503325,509,534,500
503328,509,519,494
503332,509,490,507
503336,509,491,522
503341,510,517,516
503345,509,532,498
503349,510,512,496
503353,510,485,511
503357,510,491,521
503361,511,521,510
503365,511,530,496
503369,510,503,499
503373,508,479,515
503377,508,496,521
503382,508,529,508
503385,508,527,496
503389,507,497,500
503393,507,483,515
503397,506,505,517
503401,506,530,503
503405,507,520,493
503409,508,488,503
503413,507,480,517
503417,506,509,514
503421,507,533,500
503426,508,517,497
503430,507,487,509
503434,508,485,522
503438,509,518,517
503441,508,535,502
503445,507,512,499
503449,508,486,513
503453,509,494,522
503457,508,526,512
503461,507,531,499
503465,508,504,502
503470,508,485,518
503474,509,501,524
503478,509,530,511
503482,509,528,497
503486,507,499,502
503490,506,483,516
503494,507,505,518
503497,508,533,504
503501,508,525,494
503505,507,494,503
503510,508,487,517
503514,509,513,515
503518,508,533,501
503522,508,517,497
503526,507,488,508
503530,508,490,521
503534,508,520,518
503538,507,533,502
503542,506,511,499
503546,506,487,515
503550,506,500,526
503554,507,531,515
503558,507,534,498
503562,508,505,499
503566,507,485,515
503570,506,501,521
503574,506,528,506
503578,506,526,493
503582,506,497,498
503586,507,483,514
503590,507,506,515
503595,506,532,500
503599,507,524,491
503603,507,494,500
503607,507,487,515
503610,507,512,514
503614,508,530,498
503618,508,517,493
503622,509,488,506
503626,509,491,519
503630,510,519,513
503634,510,534,500
503639,509,509,502
503643,509,483,515
503647,509,494,523
503651,508,524,513
503655,508,530,501
503659,510,504,503
503663,510,483,517
503666,509,499,522
503670,508,527,511
503674,508,523,497
503678,508,493,503
503683,507,483,518
503687,507,509,519
503691,507,533,503
503695,508,520,493
503699,507,491,501
503703,506,486,516
503707,506,514,516
503711,507,533,503
503715,508,517,497
503719,507,486,510
503723,506,489,521
503727,506,520,514
503731,506,533,498
503735,506,511,497
503739,506,487,514
503743,507,500,525
503747,506,529,512
503751,504,530,494
503755,504,501,496
503759,505,484,514
503763,506,503,520
503768,505,532,506
503772,506,528,495
503776,506,498,501
503779,505,485,518
503783,506,508,519
503787,506,535,501
503791,505,521,492
503795,506,491,503
503799,506,489,516
503803,507,517,513
503808,507,533,498
503812,508,513,493
503816,507,485,508
503820,507,491,524
503824,508,522,518
503828,508,532,501
503832,508,509,500
503835,508,487,515
503839,507,498,523
503843,506,527,511
503847,508,529,498
503852,509,499,500
503856,508,480,516
503860,508,501,521
503864,509,530,507
503868,508,525,495
503872,507,494,500
503876,507,482,513
503880,506,511,515
503884,506,534,501
503888,506,520,493
503891,507,489,506
503896,507,487,520
503900,507,517,516
503904,507,533,497
503908,507,511,492
503912,508,487,506
503916,509,494,519
503920,510,525,512
503924,510,534,497
503928,509,506,496
503932,509,483,512
503937,509,497,520
503941,509,528,508
503945,508,530,496
503948,508,501,501
503952,508,484,517
503956,508,502,519
503960,508,530,504
503964,507,526,495
503968,508,494,503
503972,509,487,519
503976,508,515,520
503981,507,540,504
503985,507,523,493
503989,507,492,504
503993,508,490,517
503997,508,519,514
504001,508,535,498
504004,507,515,496
504008,508,489,510
504012,508,497,523
504016,509,527,514
504020,509,535,497
504025,508,509,498
504029,507,485,514
504033,508,498,524
504037,508,526,514
504041,509,530,499
504045,508,504,503
504049,508,488,518
504053,507,506,521
504057,508,533,509
504060,508,528,499
504065,508,495,505
504069,508,486,521
504073,508,511,520
504077,506,533,504
504081,505,521,497
504085,504,493,509
504089,505,489,520
504093,506,517,514
504097,507,535,502
504101,508,514,501
504105,508,485,513
504110,507,492,524
504114,507,522,518
504117,507,534,502
504121,507,511,503
504125,505,487,516
504129,506,501,522
504133,506,530,510
504137,506,530,497
504141,506,500,503
504145,507,483,520
504150,507,505,523
504154,508,532,507
504158,508,525,494
504162,506,495,504
504166,506,487,520
504170,508,512,517
504173,508,535,502
504177,509,519,493
504181,507,491,505
504185,507,491,520
504189,508,521,515
504194,508,537,498
504198,507,515,498
504202,507,489,512
504206,507,498,522
504210,507,529,513
504214,508,535,499
504218,507,508,500
504222,507,484,516
504226,506,498,525
504229,508,528,515
504233,509,529,502
504238,510,500,508
504242,509,487,524
504246,508,508,526
504250,508,533,508
504254,508,523,496
504258,508,493,506
504262,508,486,521
504266,508,515,521
504270,509,538,506
504274,510,521,500
504279,509,491,511
504283,507,492,524
504286,505,522,518
504290,505,536,503
504294,506,514,500
504298,507,489,515
504302,507,498,527
504306,507,529,519
504310,507,536,505
504314,507,510,506
504318,507,488,521
504323,508,502,525
504327,509,532,510
504331,510,531,499
504335,509,501,504
504339,508,487,518
504342,508,511,522
504346,508,537,508
504350,508,526,497
504354,507,496,505
504358,506,488,520
504363,507,513,518
504367,507,534,502
504371,507,519,496
504375,508,491,507
504379,508,491,519
504383,508,521,513
504387,507,535,497
504391,507,511,495
504395,507,485,509
504398,507,497,520
504402,507,526,512
504407,507,532,497
504411,507,504,501
504415,506,486,519
504419,506,502,525
504423,507,528,513
504427,508,527,497
504431,508,499,505
504435,509,487,522
504439,509,510,524
504443,508,533,510
504448,508,523,499
504452,508,494,505
504455,507,489,520
504459,506,517,518
504463,506,535,503
504467,506,513,493
504471,505,483,505
504475,504,487,518
504479,504,518,511
504483,505,533,495
504487,506,508,491
504492,506,482,506
504496,507,493,517
504500,508,526,512
504504,509,531,500
504508,509,502,503
504511,508,480,517
504515,507,498,523
504519,507,530,512
504523,508,528,498
504527,508,495,502
504531,507,482,514
504536,508,507,517
504540,508,532,503
504544,509,522,494
504548,508,491,502
504552,508,485,515
504556,507,513,512
504560,509,532,498
504564,508,515,494
504567,508,484,507
504571,507,486,518
504576,507,518,513
504580,508,531,498
504584,508,508,496
504588,507,485,510
504592,508,497,518
504596,508,527,508
504600,507,532,495
504604,507,503,499
504608,507,483,516
504612,509,501,521
504616,509,531,508
504621,509,527,495
504625,509,497,500
504629,509,484,515
504633,508,506,515
504637,505,529,501
504641,505,517,492
504645,506,487,504
504649,508,486,519
504653,508,517,517
504657,507,534,501
504662,506,513,494
504666,505,484,508
504670,505,489,520
504674,506,521,514
504677,506,532,499
504681,506,508,498
504685,505,486,515
504689,506,497,523
504693,506,525,512
504697,506,527,498
504701,507,500,500
504706,507,485,517
504710,508,505,523
504714,507,532,510
504718,509,528,500
504722,508,499,509
504726,508,487,523
504730,508,510,522
504733,508,530,504
504737,508,517,493
504741,508,487,502
504745,506,488,519
504750,507,517,513
504754,506,537,500
504758,507,524,494
504762,506,490,510
504766,506,490,518
504770,507,523,508
504774,508,538,496
504778,509,511,496
504782,509,491,509
504786,508,494,523
504790,507,523,506
504794,509,526,495
504798,510,497,505
504802,510,484,522
504806,509,507,520
504810,509,545,505
504814,509,534,492
504818,509,506,505
504822,510,483,527
504826,510,522,516
504830,509,548,498
504835,508,526,508
504839,508,484,520
504843,509,482,526
504846,509,520,512
504850,508,539,498
504854,507,507,501
504858,507,479,515
504862,506,491,517
504866,505,514,510
504870,506,525,500
504875,506,511,500
504879,507,493,503
504883,507,504,513
504887,507,523,514
504891,508,525,507
504895,508,501,511
504899,507,474,538
504902,508,492,541
504906,509,517,505
504910,510,512,489
504914,508,501,495
504919,506,497,524
504923,505,510,539
504927,507,537,526
504931,507,512,502
504935,508,484,503
504939,508,477,518
504943,507,509,510
504947,507,541,502
504951,507,535,509
504955,508,502,521
504958,507,487,519
504963,507,510,512
504967,507,541,504
504971,507,550,548
504975,508,493,549
504979,508,492,538
504983,508,530,537
504987,510,523,496
504991,509,497,494
504995,509,484,515
504999,510,510,516
505004,510,542,511
505008,509,532,517
505012,509,502,527
505015,509,502,564
505019,508,536,574
505023,508,551,522
505027,508,522,500
505031,508,498,524
505035,508,488,521
505039,508,513,527
505043,506,546,539
505048,505,509,514
505052,506,472,523
505056,505,477,526
505060,506,545,549
505064,507,550,527
505068,507,510,490
505071,507,529,519
505075,509,496,511
505079,508,486,503
505083,508,506,483
505088,508,502,516
505092,507,504,565
505096,507,534,565
505100,506,524,518
505104,507,524,516
505108,508,485,501
505112,508,486,515
505116,508,498,520
505120,507,533,546
505124,506,524,495
505127,506,535,522
505132,506,473,494
505136,505,490,472
505140,506,511,469
505144,507,481,472
505148,507,474,479
505152,507,503,514
505156,508,531,514
505160,508,512,490
505164,507,522,539
505168,508,473,506
505172,508,487,493
505177,508,568,561
505181,508,525,485
505184,507,464,465
505188,506,475,483
505192,508,495,497
505196,509,522,513
505200,509,517,481
505204,509,504,482
505208,508,519,505
505212,509,541,537
505217,508,554,533
505221,508,527,509
505225,507,522,528
505229,508,466,514
505233,508,473,518
505237,507,496,517
505240,506,491,474
505244,507,452,463
505248,507,468,505
505252,507,509,486
505256,507,580,509
505261,507,544,545
505265,506,462,500
505269,506,497,512
505273,507,537,556
505277,507,564,573
505281,506,486,478
505285,506,438,443
505289,507,466,457
505293,507,564,524
505296,507,575,543
505300,506,504,506
505305,506,437,484
505309,505,472,534
505313,506,502,467
505317,508,480,445
505321,508,512,521
505325,509,551,597
505329,508,534,516
505333,508,507,480
505337,508,480,477
505341,508,468,481
505346,507,457,488
505350,508,522,526
505353,509,528,507
505357,510,535,529
505361,509,499,529
505365,508,531,579
505369,508,490,472
505373,508,498,469
505377,508,520,520
505381,507,517,501
505385,507,509,475
505390,508,543,508
505394,508,633,582
505398,506,536,617
505402,506,408,479
505406,507,445,468
505409,507,517,491
505413,507,496,501
505417,506,435,456
505421,507,442,482
505425,507,488,461
505430,508,528,474
505434,508,532,532
505438,507,486,541
505442,507,508,503
505446,508,564,537
505450,507,561,532
505454,507,567,519
505458,508,490,532
505462,507,490,551
505465,508,496,488
505469,509,529,500
505474,508,512,484
505478,508,448,462
505482,508,494,527
505486,509,518,499
505490,509,489,484
505494,509,490,547
505498,507,511,568
505502,507,505,487
505506,508,498,442
505510,508,490,458
505515,508,496,537
505519,508,554,594
505522,508,553,501
505526,509,491,441
505530,508,485,446
505534,507,451,475
505538,507,481,500
505542,507,493,484
505546,509,496,469
505550,509,488,506
505554,509,485,525
505559,508,550,534
505563,508,540,575
505567,507,502,474
505571,506,512,489
505575,507,502,495
505578,509,519,546
505582,509,551,623
505586,509,503,472
505590,509,443,432
505594,508,437,446
505598,507,486,465
505603,508,537,476
505607,509,511,472
505611,507,506,537
505615,507,500,522
505619,507,513,486
505623,506,559,478
505627,506,521,491
505631,506,480,534
505634,506,505,529
505638,508,501,529
505643,508,533,526
505647,507,542,515
505651,506,476,525
505655,507,474,505
505659,506,529,514
505663,506,567,501
505667,506,522,496
505671,506,455,509
505675,506,465,479
505679,507,507,493
505683,506,503,523
505688,506,471,469
505691,507,481,487
505695,506,514,491
505699,507,524,469
505703,507,566,510
505707,507,529,554
505711,507,489,521
505715,508,515,550
505719,508,504,464
505723,506,521,497
505728,506,467,511
505732,508,480,492
505736,508,548,518
505740,506,542,545
505744,507,483,481
505747,507,456,461
505751,507,498,535
505755,507,539,530
505759,508,551,466
505763,508,499,477
505767,507,465,489
505772,508,523,520
505776,508,588,582
505780,509,553,532
505784,508,438,465
505788,508,437,464
505792,508,482,504
505796,507,532,527
505800,508,510,486
505803,507,480,478
505807,509,473,486
505811,510,535,538
505816,510,636,588
505820,508,544,499
505824,508,420,466
505828,508,428,449
505832,509,494,490
505836,510,543,509
505840,509,507,493
505844,509,457,519
505848,508,467,487
505852,507,521,474
505857,506,590,543
505860,506,534,553
505864,506,464,490
505868,506,509,498
505872,506,540,512
505876,507,496,483
505880,507,492,495
505884,506,475,512
505888,505,501,544
505892,506,521,502
505896,507,527,504
505901,506,500,487
505905,506,487,511
505909,506,540,530
505913,507,545,511
505916,506,511,508
505920,508,455,464
505924,508,471,468
505928,509,524,505
505932,508,535,499
505936,508,518,502
505940,509,498,519
505945,508,487,504
505949,509,529,490
505953,509,530,535
505957,510,496,549
505961,510,495,512
505965,509,475,468
505969,509,495,467
505972,509,518,536
505976,508,516,520
505980,508,487,518
505985,509,509,494
505989,508,519,493
505993,509,507,470
505997,508,481,480
506001,508,529,538
506005,509,515,491
506009,509,540,494
506013,508,511,492
506017,507,459,492
506021,507,496,518
506024,507,549,534
506028,507,548,500
506032,508,488,486
506036,508,471,509
506040,508,516,531
506044,509,523,542
506048,508,505,478
506052,507,497,473
506056,507,477,491
506060,508,501,519
506064,507,562,521
506068,507,539,527
506073,508,456,481
506077,508,466,495
506080,507,523,532
506083,507,538,516
506087,508,506,469
506091,507,472,478
506095,506,481,493
506099,507,529,497
506103,506,532,493
506107,506,499,495
506112,507,485,510
506116,506,533,533
506120,506,599,579
506124,506,536,536
506128,505,456,489
506132,504,469,493
506135,505,496,500
506138,506,518,477
506142,505,507,464
506146,507,487,512
506150,507,505,544
506155,507,535,528
506159,507,530,483
506163,508,507,472
506167,508,489,492
506171,507,496,525
506175,508,516,498
506179,508,532,493
506183,508,533,526
506187,508,505,536
506190,509,558,589
506193,508,526,522
506198,508,485,468
506202,507,464,446
506206,505,477,510
506210,504,525,550
506214,505,519,479
506218,508,518,478
506222,509,482,485
506226,509,481,512
506230,509,512,550
506234,509,576,526
506238,510,534,495
506243,510,475,506
506246,508,477,515
506249,508,516,527
506253,507,541,534
506257,507,516,515
506261,507,484,480
506265,506,498,497
506269,507,543,527
506273,507,562,539
506277,508,522,503
506281,507,494,517
506286,507,476,519
506290,508,527,547
506294,508,542,500
506298,508,512,522
506301,508,491,549
506304,509,466,486
506308,509,506,461
506312,509,527,472
506316,508,490,488
506320,508,473,520
506324,508,503,517
506329,509,544,496
506333,509,554,525
506337,508,512,537
506341,507,484,518
506345,507,518,520
506349,508,548,490
506353,509,554,513
506356,508,528,570
506360,508,474,529
506364,508,488,492
506369,507,499,460
506373,507,491,481
506377,505,479,519
506381,504,541,586
506385,504,552,524
506389,505,553,498
506393,506,469,459
506397,507,475,502
506401,507,514,575
506405,507,520,494
506409,508,505,455
506413,507,500,491
506417,506,498,513
506421,507,575,578
506425,507,562,527
506429,507,492,465
506433,507,463,475
506437,506,517,536
506441,507,618,601
506445,507,541,504
506449,507,460,459
506454,507,439,475
506458,508,459,497
506462,508,512,516
506466,508,558,551
506469,507,538,535
506473,506,470,496
506477,505,484,496
506481,506,535,507
506485,507,520,489
506489,508,485,502
506493,506,476,495
506498,506,515,514
506502,507,539,541
506506,509,521,481
506510,508,504,489
506514,507,475,507
506518,507,550,579
506522,508,608,573
506525,509,488,453
506529,509,452,464
506533,509,456,487
506537,509,496,493
506542,509,546,490
506546,509,555,529
506550,509,508,533
506554,509,518,553
506558,509,494,496
506562,509,500,482
506566,509,499,490
506570,509,488,506
506574,508,492,516
506578,508,528,498
506582,507,521,499
506586,505,492,482
506590,505,478,487
506594,506,529,511
506598,507,582,551
506602,508,554,516
506606,508,493,493
506610,508,458,492
506614,509,500,503
506618,509,527,510
506622,507,506,493
506627,505,510,531
506631,506,543,534
506635,508,498,494
506638,509,495,475
506642,507,493,494
506646,507,468,516
506650,507,479,509
506654,508,520,500
506658,508,532,490
506662,507,506,509
506667,507,487,509
506671,506,498,532
506675,507,547,538
506679,507,612,566
506683,506,503,507
506687,507,454,470
506691,508,503,489
506694,507,524,496
506698,507,543,529
506702,508,524,530
506706,507,552,521
506711,508,492,508
506715,508,486,478
506719,509,496,480
506723,510,501,523
506727,508,526,546
506731,507,521,518
506735,507,513,494
506739,508,512,490
506743,508,488,506
506747,508,512,540
506750,507,524,553
506755,507,543,498
506759,507,518,498
506763,507,487,500
506767,507,505,520
506771,507,551,502
506775,507,564,496
506779,507,531,547
506783,508,454,560
506787,507,469,508
506791,508,509,487
506796,508,519,470
506800,508,529,507
506804,508,502,516
506807,508,504,521
506811,508,563,507
506815,508,525,500
506819,508,505,524
506823,507,497,539
506827,507,508,518
506831,507,536,507
506835,508,503,479
506840,508,463,510
506844,509,462,508
506848,509,507,513
506852,508,594,554
506856,507,537,536
506860,506,490,535
506863,507,485,514
506867,508,505,498
506871,507,534,507
506875,507,505,518
506880,506,451,491
506884,506,472,489
506888,506,546,495
506892,505,528,481
506896,505,512,508
506900,506,506,544
506904,507,497,510
506908,507,507,505
506912,508,501,500
506916,508,497,536
506919,509,529,596
506924,509,571,530
506928,510,506,458
506932,510,505,486
506936,509,493,506
506940,510,473,488
506944,509,492,481
506948,508,520,467
506952,508,505,481
506956,508,525,544
506960,508,524,553
506964,509,502,497
506969,509,543,496
506973,508,523,503
506976,507,482,529
506980,507,571,588
506984,507,651,602
506988,508,513,521
506992,506,418,444
506996,504,416,448
507000,504,481,489
507004,505,514,471
507009,505,500,493
507013,506,484,511
507017,506,479,507
507021,507,528,496
507025,507,540,494
507029,509,516,492
507032,508,488,512
507036,506,514,530
507040,506,605,560
507044,506,589,555
507048,506,507,501
507053,506,440,480
507057,506,458,495
507061,506,510,482
507065,506,536,493
507069,506,569,513
507073,506,510,521
507077,505,494,526
507081,505,508,499
507085,505,472,466
507088,504,467,485
507092,505,482,523
507097,507,530,518
507101,509,593,568
507105,510,550,502
507109,509,472,470
507113,508,452,479
507117,508,496,495
507121,507,535,514
507125,507,517,500
507129,507,506,509
507133,507,497,511
507138,507,518,508
507142,506,550,514
507145,506,539,571
507149,505,506,565
507153,504,487,516
507157,505,501,463
507161,505,501,441
507165,505,493,479
507169,507,485,506
507173,506,517,527
507177,506,593,581
507182,506,517,471
507186,506,468,480
507190,507,457,488
507194,507,513,493
507198,506,545,493
507201,507,558,515
507205,506,547,574
507209,507,502,533
507213,507,496,484
507217,508,522,473
507222,508,503,494
507226,508,484,541
507230,508,471,505
507234,507,540,504
507238,507,575,535
507242,508,504,537
507246,507,462,493
507250,507,477,478
507254,508,522,469
507257,508,558,538
507261,507,491,509
507266,506,474,493
507270,505,537,489
507274,506,586,497
507278,506,531,489
507282,506,480,514
507286,508,492,542
507290,508,562,533
507294,508,503,481
507298,508,472,471
507302,509,461,490
507307,509,485,523
507311,509,515,534
507314,507,528,501
507318,507,533,525
507322,508,541,538
507326,509,471,507
507330,508,487,471
507334,507,505,473
507338,507,505,499
507342,506,497,518
507346,507,536,540
507351,507,512,479
507355,508,496,465
507359,508,486,493
507363,507,552,553
507367,505,526,552
507370,506,489,469
507374,507,489,464
507378,507,497,527
507382,507,460,517
507386,509,500,490
507390,509,538,498
507395,510,527,528
507399,509,467,497
507403,509,474,504
507407,509,514,521
507411,510,603,591
507415,510,507,485
507419,510,441,468
507423,509,470,497
507426,509,522,487
507430,509,532,521
507435,510,521,509
507439,509,504,522
507443,510,486,516
507447,509,499,489
507451,510,517,487
507455,509,509,511
507459,508,502,522
507463,507,522,551
507467,508,530,517
507471,508,499,483
507475,508,482,501
507480,508,476,499
507483,509,511,508
507487,509,534,498
507491,507,523,497
507495,507,540,550
507499,507,524,560
507503,507,489,493
507507,508,493,463
507511,509,486,473
507515,508,504,536
507520,507,493,525
507524,507,503,487
507528,508,514,479
507532,508,504,501
507536,507,522,547
507539,506,539,570
507543,505,512,493
507547,506,503,457
507551,506,478,478
507555,507,487,529
507559,508,522,518
507564,508,542,504
507568,508,508,488
507572,508,474,503
507576,507,480,523
507580,507,534,544
507584,508,534,497
507588,508,501,468
507592,507,483,503
507595,508,498,523
507599,507,546,537
507603,508,556,524
507608,510,488,495
507612,509,459,502
507616,508,472,505
507620,507,555,536
507624,507,565,531
507628,507,474,484
507632,507,459,504
507636,508,486,512
507640,510,520,488
507644,511,536,480
507649,510,499,502
507652,509,473,513
507656,509,497,514
507660,510,522,489
507664,510,521,486
507668,510,508,541
507672,509,502,532
507676,509,515,512
507680,510,540,494
507684,510,543,511
507688,510,480,503
507693,510,530,552
507697,509,516,519
507701,510,493,475
507705,509,485,484
507709,508,468,506
507713,508,506,533
507717,507,553,534
507721,506,532,509
507725,507,502,485
507729,508,462,488
507734,508,481,493
507738,509,523,484
507742,508,530,489
507746,508,502,515
507750,508,504,544
507754,508,506,531
507758,508,523,491
507761,508,508,482
507765,508,494,508
507769,507,496,520
507773,507,521,518
507778,507,558,516
507782,507,503,496
507786,507,476,509
507790,507,571,608
507794,506,520,529
507798,507,483,453
507802,508,470,473
507806,508,466,494
507810,507,495,506
507814,507,545,517
507817,507,537,500
507822,507,485,493
507826,506,495,534
507830,507,536,537
507834,509,566,529
507838,509,509,498
507842,508,468,504
507846,508,477,490
507850,508,507,496
507854,508,538,488
507858,508,524,492
507863,508,517,533
507867,507,512,534
507871,507,502,509
507874,507,515,493
507878,509,497,490
507882,508,491,525
507886,506,517,550
507890,507,547,524
507894,507,525,506
507898,508,513,540
507902,508,476,527
507907,506,478,495
507911,506,546,508
507915,506,579,505
507919,505,478,479
507923,505,450,495
507927,506,493,518
507930,507,562,533
507934,507,528,510
507938,506,469,478
507942,506,469,497
507947,506,508,505
507951,506,525,492
507955,507,528,515
507959,507,480,512
507963,507,487,516
507967,508,522,509
507971,508,543,509
507975,508,526,517
507979,508,509,539
507983,508,484,517
507986,508,510,517
507991,508,518,498
507995,507,495,492
507999,506,481,511
508003,507,522,532
508007,507,531,509
508011,507,511,496
508015,507,508,525
508019,507,482,516
508023,507,488,503
508027,506,526,499
508032,506,519,494
508036,507,502,518
508040,506,488,528
508043,504,499,509
508047,505,537,507
508051,505,545,532
508055,507,480,491
508059,508,466,494
508063,508,516,508
508067,507,536,506
508071,509,501,499
508076,509,473,505
508080,508,501,527
508084,507,543,533
508088,508,535,507
508092,506,498,510
508096,507,469,510
508099,508,502,511
508103,509,534,505
508107,510,517,492
508111,509,489,518
508115,508,508,536
508120,508,541,546
508124,508,511,490
508128,509,497,476
508132,508,483,503
508136,507,493,520
508140,507,528,527
508144,507,521,490
508148,507,503,485
508152,507,487,507
508155,507,505,527
508160,507,552,534
508164,508,526,506
508168,508,519,511
508172,507,523,537
508176,507,490,529
508180,507,502,501
508184,507,526,508
508188,506,509,541
508192,507,478,538
508196,508,489,520
508200,507,515,475
508205,507,526,478
508209,507,496,523
508212,506,487,534
508216,506,517,517
508220,507,539,483
508224,506,521,485
508228,505,520,546
508232,505,540,546
508236,507,520,514
508240,508,500,471
508244,507,501,479
508249,507,469,492
508253,508,478,514
508257,509,528,545
508261,508,545,506
508265,509,499,480
508268,509,470,506
508272,508,496,526
508276,509,542,523
508280,510,535,500
508284,509,531,507
508289,509,490,520
508293,509,475,504
508297,508,518,509
508301,508,534,496
508305,507,498,502
508309,506,471,501
508313,506,497,499
508317,507,538,492
508321,507,540,499
508324,507,506,526
508328,508,502,535
508333,509,500,505
508337,508,534,511
508341,507,522,471
508345,507,470,481
508349,508,482,523
508353,509,518,532
508357,508,534,507
508361,508,510,488
508365,509,503,524
508369,509,535,528
508374,509,529,523
508378,508,553,527
508381,507,491,494
508385,507,455,493
508389,508,493,510
508393,509,545,513
508397,508,530,505
508401,506,485,491
508405,506,486,506
508409,507,498,506
508413,507,534,509
508418,507,538,545
508422,507,497,529
508426,508,513,535
508430,507,533,504
508434,508,517,479
508437,509,509,506
508441,508,474,496
508445,508,482,492
508449,509,530,504
508453,508,534,499
508457,508,505,499
508462,508,515,569
508466,508,518,544
508470,509,521,496
508474,510,513,481
508478,510,481,478
508482,509,475,507
508486,509,490,522
508490,508,538,539
508493,509,533,537
508497,508,492,499
508502,508,486,508
508506,508,494,505
508510,508,541,505
508514,508,529,514
508518,509,526,529
508522,509,533,556
508526,509,514,519
508530,509,545,531
508534,508,502,497
508538,508,454,480
508542,508,474,507
508547,508,518,503
508550,508,539,505
508554,507,514,515
508558,507,560,550
508562,507,547,559
508566,508,480,489
508570,509,481,470
508574,509,468,486
508578,509,490,548
508582,508,492,535
508587,509,532,535
508591,508,530,522
508595,507,490,499
508599,507,465,477
508603,507,507,485
508606,507,556,503
508610,507,523,488
508614,507,463,489
508618,507,476,506
508622,507,516,516
508626,507,534,487
508631,508,551,537
508635,508,488,529
508639,508,475,502
508643,507,520,517
508647,508,559,523
508651,507,495,499
508655,507,480,537
508659,508,485,523
508662,508,511,483
508666,508,555,499
508670,508,499,502
508675,509,496,553
508679,508,491,504
508683,508,526,510
508687,507,545,499
508691,508,510,510
508695,507,459,491
508699,506,496,493
508703,506,573,521
508707,507,532,530
508711,506,457,495
508716,506,479,505
508719,506,538,542
508723,507,528,511
508727,507,497,478
508731,507,498,498
508735,507,473,507
508739,508,515,514
508743,507,541,492
508747,506,542,541
508751,507,514,594
508755,508,469,493
508760,508,508,480
508764,509,533,500
508768,509,531,559
508772,508,476,510
508775,507,473,475
508779,507,496,467
508783,507,526,486
508787,508,531,538
508791,508,491,559
508795,508,489,515
508800,508,508,472
508804,507,515,496
508808,507,486,492
508812,507,507,535
508816,506,554,548
508820,507,572,536
508824,507,472,472
508828,508,453,480
508831,508,503,512
508835,507,525,527
508839,507,530,519
508844,507,506,513
508848,508,481,510
508852,507,528,528
508856,507,524,500
508860,508,525,494
508864,508,471,493
508868,508,457,506
508872,508,505,524
508876,508,565,525
508880,508,593,543
508884,509,514,512
508888,509,468,491
508892,507,472,494
508896,507,529,518
508900,507,505,509
508904,507,470,529
508908,507,480,514
508912,508,533,514
508916,507,557,479
508920,506,536,499
508924,506,458,493
508929,507,491,548
508933,507,587,549
508937,507,535,526
508941,506,469,472
508944,507,437,475
508948,507,475,492
508952,508,545,518
508956,508,540,539
508960,508,466,480
508964,507,464,497
508968,507,494,491
508973,508,542,539
508977,507,546,579
508981,508,490,491
508985,508,511,494
508989,507,506,499
508993,506,579,524
508997,505,588,532
509000,504,451,492
509004,505,442,484
509008,506,482,508
509012,506,512,505
509017,506,545,514
509021,507,514,523
509025,507,496,515
509029,507,536,539
509033,508,534,526
509037,508,591,560
509041,507,456,505
509045,508,447,455
509049,507,496,455
509053,507,501,468
509057,507,479,497
509061,508,471,512
509065,508,516,512
509069,508,532,518
509073,509,522,478
509077,509,494,499
509081,508,525,569
509085,508,553,555
509089,508,527,487
509093,508,480,463
509097,507,479,488
509102,507,586,558
509106,508,547,542
509109,507,469,457
509112,507,446,443
509116,506,449,489
509120,508,481,527
509124,508,530,517
509128,508,533,506
509132,509,492,474
509136,510,469,494
509140,509,490,506
509145,508,523,494
509149,507,531,489
509153,506,523,517
509157,505,523,531
509161,505,540,550
509164,506,511,488
509167,506,492,479
509171,506,467,486
509175,505,478,523
509179,505,555,546
509184,505,615,538
509188,506,523,500
509192,506,446,481
509196,506,446,508
509200,505,483,500
509204,507,523,478
509208,506,514,508
509212,506,494,530
509216,506,518,517
509219,507,521,484
509222,507,512,460
509227,507,480,467
509231,507,470,497
509235,508,516,528
509239,508,519,498
509243,509,540,500
509247,508,533,535
509251,507,596,594
509255,506,497,513
509259,508,461,459
509263,507,467,457
509267,507,457,481
509272,507,472,510
509275,507,593,607
509278,507,618,568
509282,505,469,453
509286,505,426,454
509290,506,454,479
509294,506,544,539
509298,507,532,486
509302,507,494,482
509306,507,453,489
509310,506,479,506
509315,507,520,516
509319,507,548,538
509323,508,626,565
509327,508,471,500
509330,509,444,480
509333,508,494,496
509337,508,505,487
509341,508,499,497
509345,507,470,497
509349,507,508,504
509353,509,545,506
509358,509,538,512
509362,508,527,525
509366,509,465,501
509370,508,486,488
509374,507,513,481
509378,506,498,493
509382,506,472,522
509385,506,519,540
509388,506,585,577
509392,506,615,561
509396,507,464,477
509401,507,419,458
509405,506,452,479
509409,507,504,483
509413,507,516,481
509417,508,490,491
509421,507,479,513
509425,507,529,557
509429,507,552,516
509433,508,566,507
509437,509,488,491
509441,509,451,490
509445,509,493,508
509449,507,538,501
509453,507,540,519
509457,508,517,556
509461,508,480,536
509465,509,493,496
509469,509,518,483
509473,509,498,469
509477,508,514,510
509481,507,603,628
509486,507,545,555
509490,507,468,447
509494,506,455,448
509497,506,451,490
509501,506,478,515
509505,506,517,504
509509,507,523,498
509513,508,495,495
509517,507,488,508
509521,507,536,547
509526,508,567,532
509530,508,545,526
509534,508,483,504
509538,508,469,507
509542,507,553,524
509546,507,549,521
509550,507,517,530
509553,508,470,506
509557,508,457,482
509561,509,495,485
509565,509,520,477
509570,510,526,490
509574,509,523,550
509578,508,496,539
509582,508,539,550
509586,509,514,468
509590,509,494,466
509594,507,502,512
509598,508,485,505
509602,508,510,487
509606,508,539,498
509609,507,557,565
509614,506,477,525
509618,506,479,504
509622,506,511,481
509626,508,523,487
509630,509,553,560
509634,508,513,561
509638,509,484,496
509642,510,495,464
509646,509,499,468
509650,509,486,501
509655,508,512,537
509659,507,519,520
509663,508,530,515
509666,507,509,499
509670,507,480,486
509674,508,519,528
509678,508,556,560
509682,508,524,494
509686,509,480,466
509690,510,454,485
509694,510,474,499
509699,509,553,525
509703,509,568,525
509707,510,485,496
509711,509,456,497
509715,510,480,498
509719,509,523,484
509722,509,536,496
509726,508,537,552
509730,509,490,546
509734,509,493,513
509739,509,508,482
509743,509,500,479
509747,509,477,496
509751,509,486,516
509755,507,577,546
509759,506,554,510
509763,506,489,475
509767,507,492,526
509771,507,499,518
509775,507,505,486
509778,506,514,475
509783,506,495,490
509787,506,475,506
509791,506,506,520
509795,507,560,532
509799,508,522,499
509803,508,483,492
509807,507,472,508
509811,507,498,514
509815,506,532,503
509819,508,527,489
509824,508,496,502
509828,507,536,561
509832,507,577,583
509835,506,521,511
509839,506,474,459
509843,506,454,470
509847,505,471,493
509851,505,508,495
509855,505,527,487
509859,506,537,509
509863,506,518,539
509868,506,488,524
509872,506,502,488
509876,507,516,479
509880,506,501,494
509884,506,477,508
509888,506,489,509
509891,507,535,500
509895,508,545,511
509899,508,514,521
509903,507,499,562
509907,506,499,539
509912,506,514,471
509916,507,506,463
509920,508,482,484
509924,509,482,508
509928,508,512,506
509932,507,542,481
509936,508,516,488
509940,509,484,505
509944,508,485,491
509947,507,528,506
509952,507,545,513
509956,507,517,506
509960,507,477,507
509964,507,493,527
509968,507,531,507
509972,507,534,490
509976,508,500,496
509980,507,484,515
509984,507,499,521
509988,506,531,504
509992,507,546,497
509997,506,494,503
510001,507,473,511
510004,507,499,509
510008,508,535,471
510012,508,526,491
510016,509,496,506
510020,508,507,510
510024,509,534,510
510028,510,546,484
510032,508,516,495
510036,508,485,518
510041,507,488,527
510045,508,518,517
510049,508,531,500
510053,507,508,495
510057,507,484,503
510060,506,498,520
510064,505,529,509
510068,505,532,493
510072,506,503,495
510076,507,485,513
510081,508,503,515
510085,508,539,501
510089,506,535,490
510093,505,498,496
510097,507,478,510
510101,506,501,515
510105,507,532,497
510109,508,524,490
510113,509,490,508
510116,509,480,520
510120,508,507,514
510125,508,530,501
510129,508,513,491
510133,507,482,505
510137,507,484,515
510141,508,516,503
510145,508,530,492
510149,507,506,492
510153,506,480,506
510157,507,485,513
510161,508,521,498
510166,509,529,486
510170,510,496,490
510173,509,476,509
510177,510,499,514
510181,509,525,503
510185,508,520,492
510189,509,487,496
510193,509,477,510
510197,508,502,515
510201,507,530,501
510205,506,517,488
510210,506,482,498
510214,507,473,516
510218,507,509,512
510222,506,537,502
510226,506,517,495
510229,505,484,508
510233,505,487,518
510237,507,522,512
510241,507,539,492
510245,506,514,494
510249,506,480,510
510254,506,492,520
510258,506,532,509
510262,506,536,496
510266,507,501,498
510270,508,481,511
510274,508,502,520
510278,509,539,510
510282,509,532,499
510285,508,502,495
510289,508,485,514
510294,508,509,516
510298,508,543,511
510302,508,530,503
510306,508,496,511
510310,508,494,522
510314,509,526,520
510318,509,544,503
510322,508,523,491
510326,508,488,508
510330,507,490,522
510334,506,526,514
510339,506,539,494
510342,507,514,497
510346,508,488,517
510350,509,501,525
510354,510,534,513
510358,509,537,498
510362,509,505,501
510366,507,490,519
510370,507,505,525
510374,508,534,515
510379,507,533,506
510383,507,499,511
510387,508,486,526
510391,508,516,527
510395,508,543,510
510398,508,529,505
510402,507,495,522
510406,505,487,533
510410,506,520,525
510414,507,539,510
510418,506,514,505
510423,506,484,516
510427,506,493,530
510431,506,524,524
510435,506,534,506
510439,506,506,504
510443,506,481,519
510447,506,496,527
510451,506,526,517
510454,507,530,504
510458,507,505,506
510462,508,486,523
510467,508,504,527
510471,509,538,516
510475,509,532,503
510479,509,500,511
510483,509,487,528
510487,510,512,528
510491,510,537,513
510495,510,528,505
510499,509,494,519
510503,508,494,530
510508,509,523,524
510511,509,536,506
510515,507,514,498
510519,507,487,515
510523,507,493,525
510527,507,524,512
510531,507,529,501
510535,508,507,504
510539,508,485,517
510543,507,498,523
510547,507,528,510
510552,507,531,496
510556,507,505,499
510560,508,486,516
510564,509,507,526
510567,509,535,515
510571,510,528,502
510575,510,497,511
510579,508,488,525
510583,507,515,526
510587,508,538,509
510592,508,521,500
510596,508,494,510
510600,507,491,521
510604,507,521,520
510608,506,539,505
510612,506,519,498
510616,507,489,510
510620,506,498,521
510623,505,527,515
510627,505,534,500
510631,507,507,497
510636,509,481,512
510640,508,498,523
510644,507,530,513
510648,508,532,499
510652,509,501,504
510656,509,481,520
510660,509,506,526
510664,510,534,512
510668,510,527,501
510672,507,492,509
510676,507,479,520
510680,509,507,519
510684,509,531,508
510688,508,515,501
510692,507,485,515
510696,506,486,529
510700,508,516,521
510704,508,532,505
510708,506,512,500
510712,507,482,513
510716,508,488,521
510721,509,523,514
510725,509,533,501
510729,509,504,501
510733,509,479,515
510736,508,496,521
510740,508,530,509
510744,509,528,495
510748,509,495,501
510752,507,480,518
510756,506,503,520
510760,506,536,507
510765,508,528,497
510769,509,490,506
510773,508,481,521
510777,507,515,521
510781,506,541,506
510785,506,521,501
510789,507,484,510
510793,507,484,525
510797,507,521,520
510801,508,538,504
510806,507,512,499
510810,506,482,512
510814,506,493,523
510818,506,527,512
510822,506,536,498
510826,506,505,502
510830,507,483,519
510834,507,502,524
510838,507,537,516
510842,507,534,496
510845,507,498,499
510850,508,486,516
510854,508,511,521
510858,507,537,505
510862,507,527,493
510866,506,495,503
510870,506,490,520
510874,508,521,520
510878,510,541,504
510882,509,524,496
510886,508,492,509
510891,508,495,524
510895,508,527,517
510899,508,536,500
510902,507,513,496
510906,505,486,510
510910,506,497,520
510914,507,528,512
510918,507,535,498
510922,506,508,500
510926,507,484,513
510930,507,501,519
510935,506,531,506
510939,506,530,493
510943,506,501,499
510947,506,488,514
510951,507,509,516
510955,509,534,502
510958,509,525,494
510962,510,498,505
510966,509,492,519
510970,508,516,517
510974,508,535,502
510979,509,520,498
510983,509,490,511
510987,508,494,522
510991,506,524,515
510995,505,534,499
510999,505,511,496
511003,505,489,510
511007,506,499,521
511011,508,528,511
511014,508,528,497
511019,507,501,498
511023,507,479,512
511027,506,495,518
511031,506,526,504
511035,507,527,493
511039,507,499,501
511043,506,484,518
511047,506,504,520
511051,507,530,507
511055,507,523,498
511059,508,493,507
511064,508,486,521
511068,509,512,520
511071,510,530,505
511075,510,514,499
511079,510,486,513
511083,509,487,526
511087,509,515,519
511091,508,530,501
511095,509,506,497
511099,509,480,510
511104,508,492,522
511108,507,524,512
511112,507,528,498
511116,507,499,500
511120,508,479,514
511124,508,500,519
511127,508,530,505
511131,508,528,493
511135,506,498,501
511139,507,484,517
511143,507,508,519
511148,508,534,505
511152,508,523,498
511156,508,489,509
511160,508,485,524
511164,507,516,523
511168,506,538,507
511172,507,518,500
511176,508,486,514
511180,508,491,527
511183,507,522,520
511187,506,531,503
511192,508,505,500
511196,508,481,512
511200,509,495,520
511204,510,530,510
511208,509,534,496
511212,507,500,496
511216,507,480,513
511220,507,501,522
511224,507,535,510
511228,507,530,496
511233,507,494,502
511237,507,482,518
511240,507,511,520
511244,508,538,505
511248,508,525,498
511252,507,490,509
511256,507,487,524
511260,508,518,521
511264,510,537,505
511268,509,517,500
511272,509,485,512
511277,509,491,523
511281,509,524,514
511285,508,534,499
511289,507,507,501
511293,507,481,515
511296,506,493,521
511300,507,527,509
511304,507,533,495
511308,507,503,499
511312,506,480,515
511316,505,501,520
511321,506,530,506
511325,506,526,495
511329,506,494,501
511333,506,481,518
511337,506,506,521
511341,507,530,504
511345,507,521,496
511349,506,490,505
511352,507,484,520
511356,507,514,518
511361,508,534,504
511365,508,516,501
511369,508,488,514
511373,507,492,525
511377,507,524,516
511381,508,535,501
511385,508,510,501
511389,508,485,515
511393,507,496,522
511397,507,527,510
511401,508,530,497
511406,508,505,501
511409,507,488,517
511413,506,504,519
511417,507,530,504
511421,507,526,493
511425,507,499,501
511429,505,489,517
511433,505,512,518
511437,506,534,504
511441,506,521,496
511446,505,492,508
511450,506,491,524
511454,507,518,519
511458,508,534,503
511462,509,516,499
511465,507,489,512
511469,507,494,523
511473,506,524,515
511477,508,535,499
511481,507,509,498
511485,507,482,513
511490,507,497,522
511494,506,528,512
511498,506,530,499
511502,507,501,502
511506,508,483,517
511510,508,504,521
511514,507,530,507
511518,507,522,494
511521,506,490,503
511525,506,482,520
511529,507,506,522
511534,510,531,507
511538,510,518,497
511542,508,488,509
511546,508,486,524
511550,508,515,520
511554,508,532,503
511558,509,511,499
511562,509,483,512
511566,509,490,524
511570,508,522,517
511575,508,532,502
511578,508,505,499
511582,507,479,512
511586,507,495,519
511590,508,530,509
511594,508,531,496
511598,508,498,499
511602,507,480,515
511606,508,501,518
511610,508,530,504
511614,507,525,494
511619,507,492,501
511623,507,481,518
511627,508,511,520
511631,509,535,505
511634,509,516,496
511638,507,484,509
511642,507,484,524
511646,508,517,521
511650,509,537,506
511654,510,514,502
511659,509,483,515
511663,510,490,526
511667,508,525,520
511671,508,535,504
511675,508,505,502
511679,508,480,515
511683,508,498,523
511687,510,532,512
511690,510,533,498
511694,509,501,501
511698,509,483,515
511703,507,504,519
511707,507,534,506
511711,505,528,495
511715,506,493,504
511719,506,486,519
511723,506,514,520
511727,506,537,506
511731,506,521,498
511735,506,489,508
511739,508,490,522
511744,510,522,517
511747,510,538,501
511751,510,515,498
511755,510,487,510
511759,508,492,520
511763,509,523,513
511767,509,534,499
511771,509,508,498
511775,508,486,512
511779,508,501,520
511783,508,529,507
511788,508,529,493
511792,508,500,498
511796,508,484,514
511800,509,507,517
511803,509,532,504
511807,509,526,494
511811,508,498,505
511815,507,488,521
511819,507,513,520
511823,506,535,507
511827,506,520,499
511832,507,490,510
511836,506,490,523
511840,506,520,519
511844,507,534,504
511848,507,516,500
511852,508,490,513
511856,508,495,522
511859,509,525,513
511863,509,532,501
511867,509,507,503
511872,508,487,517
511876,509,499,523
511880,508,527,509
511884,507,527,495
511888,507,498,499
511892,508,482,515
511896,508,504,518
511900,508,530,506
511904,508,522,495
511908,508,491,503
511912,507,485,519
511916,507,511,519
511920,508,531,504
511924,509,516,498
511928,510,488,511
511932,510,489,525
511936,509,517,519
511940,508,529,500
511944,509,510,498
511948,509,483,515
511952,510,490,525
511956,511,520,516
511961,511,530,500
511965,510,505,502
511969,510,483,517
511972,509,499,523
511976,508,530,510
511980,507,527,494
511984,507,496,500
511988,507,482,516
511992,508,505,518
511996,508,533,503
512001,507,522,493
512005,507,490,503
512009,507,481,517
512013,507,512,518
512017,507,534,505
512021,508,516,501
512025,506,488,514
512028,507,494,528
512032,508,522,521
512036,508,534,503
512040,509,510,500
512045,509,482,517
512049,510,492,526
512053,510,527,515
512057,508,535,500
512061,508,505,500
512065,508,482,513
512069,507,501,518
512073,506,533,508
512077,505,530,495
512081,506,497,500
512084,506,481,514
512089,505,507,516
512093,505,535,503
512097,506,524,495
512101,507,491,504
512105,506,486,518
512109,507,518,517
512113,507,539,502
512117,507,520,496
512121,506,486,507
512125,506,486,519
512130,506,518,512
512134,506,533,497
512138,505,510,496
512141,505,484,513
512145,505,494,522
512149,505,524,511
512153,506,529,495
512157,507,502,498
512161,506,480,512
512165,506,498,517
512169,505,530,505
512174,505,527,493
512178,506,495,497
512182,506,479,512
512186,506,502,516
512190,506,530,504
512194,505,521,497
512197,505,491,507
512201,506,486,522
512205,507,514,519
512209,508,533,503
512214,507,516,498
512218,506,486,510
512222,506,488,525
512226,506,518,519
512230,506,533,501
512234,508,508,498
512238,509,484,515
512242,508,495,525
512246,508,526,515
512250,507,531,500
512253,507,502,501
512258,507,482,515
512262,507,499,520
512266,508,529,507
512270,507,527,495
512274,507,498,499
512278,506,485,514
512282,507,508,516
512286,506,533,500
512290,506,522,492
512294,506,491,501
512299,506,487,516
512303,506,515,515
512307,506,535,500
512310,506,518,495
512314,506,490,508
512318,507,492,519
512322,507,522,512
512326,506,535,498
512330,505,511,497
512334,506,485,513
512338,507,496,522
512343,507,526,511
512347,506,531,498
512351,506,504,500
512355,508,485,515
512359,508,499,521
512363,507,528,508
512366,506,527,496
512370,508,496,501
512374,507,484,516
512378,506,508,517
512382,506,532,502
512387,509,521,493
512391,510,489,504
512395,510,486,519
512399,509,518,517
512403,509,535,500
512407,509,516,495
512411,510,486,509
512415,510,491,520
512419,509,525,515
512422,509,538,501
512425,509,510,499
512430,509,483,514
512434,508,495,521
512438,508,528,511
512442,509,533,496
512446,509,504,499
512450,509,484,513
512454,508,504,519
512458,507,536,509
512462,507,531,497
512466,508,497,501
512471,506,483,514
512475,506,509,516
512479,508,535,501
512483,507,522,493
512487,507,490,505
512491,507,486,518
512495,508,519,516
512499,507,538,500
512503,508,515,495
512507,507,485,510
512512,507,490,524
512516,508,522,517
512520,508,535,501
512524,507,509,501
512528,507,485,517
512532,507,497,524
512535,506,530,513
512538,505,536,499
512542,505,504,502
512546,504,483,516
512550,505,503,521
512555,507,531,507
512559,508,525,495
512563,507,495,504
512567,507,484,519
512571,507,511,519
512575,508,538,503
512579,508,525,492
512583,509,492,502
512587,508,489,516
512591,508,517,514
512594,509,536,500
512599,508,516,497
512603,507,488,512
512607,508,493,523
512611,508,524,517
512615,508,536,501
512619,508,511,500
512623,509,484,515
512627,509,496,523
512631,509,526,511
512635,509,529,496
512640,509,502,501
512644,509,483,516
512648,509,503,520
512651,508,533,508
512655,510,529,495
512659,507,497,501
512663,506,485,516
512667,504,509,517
512671,504,534,502
512675,504,520,495
512679,505,491,506
512684,506,489,520
512688,506,518,517
512692,506,538,504
512696,506,518,501
512700,507,489,513
512704,507,493,523
512707,509,522,515
512711,509,533,499
512715,510,508,498
512719,510,485,514
512723,510,500,522
512728,510,531,510
512732,509,532,494
512736,509,504,497
512740,509,485,513
512744,509,504,517
512748,508,530,504
512752,507,525,494
512756,507,495,502
512760,508,485,517
512763,508,510,517
512768,506,535,501
512772,508,523,493
512776,508,490,504
512780,507,487,519
512784,507,518,517
512788,508,535,500
512792,508,514,496
512796,508,486,511
512800,508,495,524
512804,508,526,515
512808,508,534,498
512813,509,509,498
512817,509,487,514
512820,508,502,524
512824,507,530,513
512828,508,528,496
512832,508,500,499
512836,507,483,515
512840,506,505,519
512844,506,531,503
512848,505,525,492
512852,506,492,499
512857,505,482,513
512861,503,509,513
512865,503,534,499
512869,504,523,492
512873,505,492,503
512876,506,489,517
512880,506,519,514
512884,506,538,499
512888,507,516,495
512892,506,486,508
512897,506,490,519
512901,508,524,513
512905,508,536,501
512909,509,507,502
512913,507,480,514
512917,507,496,521
512921,507,529,511
512925,507,530,497
512929,508,498,499
512932,509,481,512
512936,509,503,515
512941,510,531,502
512945,509,524,493
512949,509,492,502
512953,508,482,516
512957,506,512,514
512961,507,535,499
512965,507,520,493
512969,507,490,504
512973,506,490,518
512977,507,520,513
512982,508,537,500
512986,507,516,497
512989,508,487,512
512993,509,492,522
512997,509,526,516
513001,509,533,502
513005,510,507,499
513009,510,486,514
513013,510,502,520
513017,509,532,507
513021,509,532,493
513026,508,502,498
513030,507,487,515
513034,508,508,518
513038,507,534,502
513042,506,527,491
513045,507,495,497
513049,507,487,512
513053,507,513,512
513057,507,534,498
513061,506,518,492
513065,507,488,504
513070,507,488,517
513074,507,518,512
513078,507,533,496
513082,507,511,495
513086,505,484,511
513090,506,492,523
513094,505,522,513
513098,505,529,497
513101,505,504,498
513104,507,482,516
513108,508,495,523
513113,507,523,509
513117,507,524,494
513121,507,496,499
513125,507,480,516
513129,507,500,518
513133,508,527,502
513137,509,522,493
513141,508,491,502
513145,508,482,516
513149,508,510,515
513154,509,532,500
513157,509,517,494
513161,507,487,506
513165,506,486,517
513169,508,517,513
513173,508,533,499
513177,507,512,495
513181,506,485,509
513185,507,495,522
513189,508,526,513
513193,508,534,497
513198,507,507,498
513202,507,485,515
513206,508,499,521
513210,508,527,508
513213,507,528,494
513216,508,499,500
