315140,443,572,585
315144,557,490,568
315148,595,432,458
315152,502,488,422
315155,415,579,519
315159,463,563,602
315163,576,464,552
315167,583,427,442
315171,475,507,435
315175,412,586,542
315180,489,545,603
315184,591,446,526
315188,565,435,421
315192,452,525,446
315196,418,583,560
315200,515,523,594
315204,599,434,501
315208,546,452,421
315211,434,552,474
315215,431,583,578
315219,543,497,580
315224,602,420,474
315228,521,464,420
315232,423,566,499
315236,453,571,592
315240,568,479,562
315244,596,427,449
315248,495,491,422
315252,415,580,524
315256,474,559,605
315260,585,458,541
315265,580,428,435
315268,468,513,441
315272,415,587,549
315276,500,542,600
315280,598,449,517
315284,561,448,428
315288,446,541,462
315292,422,590,573
315296,525,520,593
315300,601,431,486
315304,535,455,413
315309,424,555,477
315313,435,581,581
315317,551,493,572
315321,600,425,464
315324,511,480,415
315328,418,576,501
315332,457,574,591
315336,571,478,553
315340,589,430,445
315344,484,505,428
315348,413,590,530
315353,481,558,598
315357,588,457,532
315361,574,439,432
315365,459,528,448
315369,415,593,558
315373,507,535,594
315377,599,440,503
315380,554,448,417
315384,440,544,463
315388,427,584,573
315393,534,506,582
315397,600,424,477
315401,526,462,415
315405,422,564,489
315409,442,578,591
315413,555,486,570
315417,594,424,455
315421,499,486,417
315425,415,582,510
315429,465,568,595
315433,576,471,544
315437,582,435,439
315441,476,517,438
315445,415,592,540
315449,491,547,602
315453,590,447,524
315457,566,436,426
315461,452,529,458
315465,418,587,568
315469,516,524,597
315473,600,430,496
315478,546,449,415
315482,435,551,472
315486,433,582,581
315490,541,499,578
315493,600,423,468
315497,520,467,416
315501,422,565,495
315505,451,569,591
315509,564,477,565
315513,591,426,446
315517,492,494,420
315522,414,581,520
315526,473,556,595
315530,582,456,534
315534,577,432,429
315538,465,516,433
315542,414,586,546
315546,499,538,595
315549,594,445,515
315553,558,446,422
315557,446,539,458
315561,423,587,570
315566,524,517,591
315570,599,429,492
315574,534,459,420
315578,427,558,483
315582,437,576,585
315586,550,488,576
315590,598,423,467
315594,510,479,419
315598,417,573,506
315602,457,565,595
315606,569,470,551
315610,587,424,439
315614,483,496,425
315618,411,580,530
315622,481,547,597
315626,588,448,527
315630,572,433,429
315634,459,524,451
315638,415,593,564
315642,506,535,601
315646,596,439,508
315651,551,449,420
315655,437,546,466
315659,426,585,576
315662,535,509,584
315666,602,429,474
315670,526,467,415
315674,422,567,488
315678,443,577,591
315682,557,484,568
315686,594,425,450
315691,500,487,419
315695,416,581,514
315699,467,568,597
315703,578,468,543
315707,584,431,436
315711,475,511,434
315715,414,590,539
315718,492,550,594
315722,593,450,514
315726,566,443,420
315730,451,536,449
315735,419,593,566
315739,518,531,596
315743,599,442,496
315747,543,462,416
315751,432,562,471
315755,430,591,579
315759,540,507,580
315763,599,432,476
315767,518,477,422
315771,420,570,505
315774,452,570,596
315779,567,477,561
315783,595,427,456
315787,494,495,430
315791,415,583,523
315795,478,557,595
315799,588,461,532
315803,580,437,428
315807,467,522,438
315811,417,595,549
315815,503,543,597
315820,599,444,514
315824,561,445,422
315828,446,543,465
315831,424,591,574
315835,530,519,589
315839,604,434,487
315843,536,466,417
315847,429,566,485
315851,440,586,589
315855,556,497,575
315859,603,428,463
315864,510,483,421
315868,417,581,513
315872,462,570,600
315876,576,468,552
315880,591,425,438
315884,483,501,424
315887,413,582,529
315891,485,544,596
315895,591,447,523
315899,572,435,425
315904,458,526,449
315908,415,588,555
315912,510,528,590
315916,601,436,502
315920,551,453,418
315924,438,550,467
315928,429,588,577
315932,539,510,584
315936,604,427,474
315940,527,467,414
315943,423,568,492
315948,447,576,590
315952,564,481,568
315956,599,423,459
315960,501,485,426
315964,416,577,522
315968,469,561,598
315972,582,461,541
315976,584,428,434
315980,472,512,434
315984,411,589,541
315988,493,545,598
315993,596,443,520
315997,568,434,422
316000,451,527,451
316004,420,584,560
316008,522,519,590
316012,605,429,491
316016,544,455,418
316020,432,553,478
316024,435,583,582
316028,548,501,578
316033,604,425,465
316037,517,471,417
316041,418,569,500
316045,453,570,595
316049,570,475,564
316053,595,426,449
316056,491,493,426
316060,412,581,529
316064,477,555,602
316068,587,456,535
316072,578,428,431
316077,465,511,440
316081,415,582,552
316085,504,536,593
316089,600,443,506
316093,560,447,416
316097,443,537,457
316101,423,583,567
316105,528,518,583
316108,601,436,480
316112,531,468,411
316116,424,565,482
316121,438,585,585
316125,553,497,571
316129,598,430,462
316133,506,483,423
316137,415,574,512
316141,461,567,598
316145,575,473,558
316149,588,431,449
316153,479,506,437
316157,412,590,543
316162,486,554,602
316165,593,455,528
316169,573,439,428
316173,456,525,448
316177,416,588,559
316181,511,527,593
316185,601,436,501
316189,551,451,418
316193,435,548,469
316197,427,585,580
316201,540,505,582
316206,603,425,475
316210,524,467,418
316214,421,568,499
316218,446,578,591
316221,564,488,567
316225,599,429,458
316229,499,489,425
316233,415,577,521
316237,471,559,601
316241,584,464,543
316246,585,432,435
316250,472,512,435
316254,414,590,545
316258,496,544,597
316262,596,443,513
316266,565,438,416
316270,449,523,449
316274,420,579,562
316277,523,520,587
316281,603,437,489
316285,541,461,413
316290,429,561,474
316294,431,589,583
316298,546,506,578
316302,601,431,468
316306,516,480,420
316310,418,576,502
316314,456,576,595
316318,573,483,556
316322,595,436,446
316326,488,504,429
316331,410,588,531
316334,476,560,599
316338,588,463,533
316342,579,440,431
316346,464,523,442
316350,415,589,551
316354,506,536,594
316358,600,441,510
316362,558,449,425
316366,443,543,465
316370,426,588,570
316375,533,517,583
316379,604,435,480
316383,533,465,416
316387,425,560,482
316390,439,577,584
316394,553,490,567
316398,596,425,455
316402,503,483,416
316406,413,579,505
316410,460,567,592
316414,576,467,547
316419,588,426,441
316423,479,503,432
316427,412,583,539
316431,487,546,607
316435,592,449,531
316439,571,438,431
316443,456,523,455
316446,417,580,567
316450,512,521,599
316454,600,429,504
316459,547,446,423
316463,433,545,473
316467,428,581,585
316471,538,501,588
316475,600,423,478
316479,522,466,418
316483,419,562,492
316487,445,572,591
316491,560,484,565
316495,594,428,455
316499,495,493,425
316503,413,581,521
316507,469,560,599
316511,581,462,540
316515,582,431,436
316519,469,511,438
316523,411,584,547
316527,493,539,602
316531,594,445,524
316535,563,443,432
316539,448,537,462
316544,420,590,573
316548,519,519,592
316552,599,428,492
316556,539,454,417
316559,432,556,476
316563,438,584,579
316567,550,497,571
316571,602,426,464
316575,515,475,418
316579,419,572,504
316583,457,571,593
316588,571,476,554
316592,593,426,445
316596,488,498,425
316600,415,585,526
316604,480,558,599
316608,588,459,534
316612,578,439,432
316615,464,524,443
316619,415,592,553
316623,506,539,595
316627,600,446,508
316632,557,449,420
316636,442,541,463
316640,426,583,572
316644,533,509,583
316648,604,428,479
316652,534,464,410
316656,425,563,485
316660,441,582,588
316664,557,493,567
316668,598,427,456
316672,504,484,413
316676,418,579,507
316680,465,570,595
316684,578,475,550
316688,587,437,434
316692,477,512,425
316696,410,591,532
316700,486,553,595
316704,591,454,522
316708,568,440,422
316712,453,529,450
316717,417,589,564
316721,514,528,593
316725,600,438,500
316728,546,457,420
316732,432,556,471
316736,429,590,578
316740,541,507,580
316744,602,430,472
316748,522,470,412
316752,419,566,491
316756,447,574,592
316761,563,485,563
316765,594,432,451
316769,493,496,425
316773,411,585,521
316777,469,563,596
316781,581,466,539
316784,581,440,435
316788,468,524,439
316792,411,596,551
316796,496,543,599
316801,595,446,516
316805,561,443,425
316809,443,535,460
316813,421,590,570
316817,526,525,592
316821,605,438,489
316825,539,463,415
316829,427,560,480
316833,435,585,585
316837,550,499,575
316840,602,428,465
316845,513,479,419
316849,417,574,506
316853,456,570,595
316857,573,476,554
316861,594,430,445
316865,487,500,425
316869,412,584,528
316873,481,553,593
316877,591,456,527
316881,578,439,427
316886,461,526,444
316890,417,592,556
316894,511,539,599
316897,605,444,508
316901,557,453,421
316905,439,549,469
316909,425,587,574
316913,532,509,584
316917,604,429,485
316921,533,467,422
316925,425,562,493
316930,442,576,591
316934,559,486,567
316938,600,424,453
316942,504,483,417
316946,414,573,512
316950,463,558,595
316953,581,464,542
316957,590,428,437
316961,479,509,431
316965,413,588,537
316969,491,550,598
316974,596,452,523
316978,570,441,424
316982,453,534,455
316986,418,594,564
316990,518,532,598
316994,604,444,504
316998,549,461,423
317002,436,558,476
317006,431,588,585
317009,544,506,584
317014,604,431,474
317018,523,475,420
317022,422,570,501
317026,452,574,595
317030,570,480,565
317034,600,424,454
317038,497,490,427
317042,414,580,527
317046,475,561,599
317050,586,463,537
317054,582,434,432
317059,468,515,439
317063,413,588,551
317066,498,541,598
317070,596,444,511
317074,562,444,418
317078,446,541,456
317082,420,590,564
317086,524,521,581
317090,603,438,481
317094,538,464,415
317099,428,560,481
317103,437,583,586
317107,552,499,575
317111,602,430,462
317115,512,480,419
317119,417,573,512
317122,457,567,598
317126,573,473,554
317130,591,428,442
317134,483,500,427
317138,411,584,533
317143,480,553,600
317147,591,456,526
317151,577,438,426
317155,460,524,447
317159,414,587,553
317163,506,530,591
317167,599,439,499
317171,553,452,413
317175,439,546,462
317178,426,587,576
317182,535,512,587
317187,604,432,480
317191,529,468,420
317195,423,568,494
317199,443,581,590
317203,557,491,564
317207,595,431,458
317211,499,491,423
317215,412,583,516
317219,464,567,597
317223,578,469,542
317228,585,432,438
317232,474,510,429
317235,409,586,536
317239,488,546,596
317243,594,452,517
317247,567,443,422
317251,449,532,453
317255,415,590,568
317259,516,527,590
317263,602,436,492
317267,545,454,416
317272,433,551,475
317276,433,583,579
317280,545,505,576
317284,603,431,471
317288,519,471,420
317291,419,568,501
317295,451,573,595
317299,568,481,560
317303,595,429,449
317307,491,494,426
317312,410,582,527
317316,472,562,599
317320,583,462,533
317324,579,434,429
317328,465,515,438
317332,412,586,547
317336,498,537,595
317340,597,442,511
317344,560,444,414
317347,444,534,452
317351,420,581,564
317356,525,512,583
317360,601,427,486
317364,533,458,417
317368,425,559,484
317372,435,579,587
317376,551,493,574
317380,600,428,463
317384,510,483,420
317388,417,577,509
317392,460,570,596
317396,575,476,554
317401,593,430,445
317404,486,503,437
317408,414,584,538
317412,483,551,603
317416,590,454,531
317420,574,437,428
317424,459,522,448
317428,416,584,559
317432,507,529,596
317436,597,438,502
317441,551,448,416
317445,439,542,464
317449,427,579,574
317453,535,506,584
317457,602,431,474
317460,528,468,416
317464,425,563,492
317468,448,575,590
317472,561,488,567
317476,599,431,458
317480,503,489,425
317485,417,578,518
317489,467,563,601
317493,579,468,545
317497,584,433,440
317501,474,513,441
317505,412,588,548
317509,489,544,600
317512,590,445,516
317515,565,437,419
317519,452,529,450
317523,421,585,562
317528,518,522,590
317532,599,438,496
317536,542,459,420
317540,431,552,476
317544,433,580,577
317548,545,499,573
317552,602,423,463
317556,519,469,410
317560,421,567,496
317564,453,571,591
317568,568,481,558
317571,595,432,450
317575,492,500,427
317579,414,584,525
317583,476,555,597
317587,587,460,535
317591,580,434,433
317595,466,515,443
317599,415,585,554
317603,502,536,604
317607,598,443,513
317612,560,444,415
317616,444,535,458
317620,424,582,570
317623,530,511,584
317626,603,429,481
317630,533,460,414
317634,424,556,482
317638,437,577,587
317642,553,495,575
317646,600,433,466
317650,508,484,425
317655,416,573,516
317659,460,566,602
317663,576,474,557
317667,591,433,449
317671,482,504,439
317675,412,582,541
317678,485,547,604
317681,593,453,530
317685,574,438,430
317689,455,524,453
317693,415,584,562
317698,513,530,604
317702,602,441,504
317706,552,453,419
317710,436,544,468
317714,426,581,577
317718,537,506,583
317722,603,430,476
317726,526,472,417
317730,422,570,495
317733,447,579,591
317736,562,488,565
317741,597,431,455
317745,497,493,420
317749,411,583,517
317753,468,565,598
317757,582,469,543
317761,584,439,437
317765,472,517,437
317769,412,591,545
317773,494,545,601
317777,595,449,520
317782,565,445,424
317786,448,538,457
317789,420,592,569
317793,523,526,593
317797,606,438,488
317801,544,460,415
317805,429,556,478
317809,432,581,581
317813,548,501,576
317817,605,431,466
317821,519,478,417
317826,420,576,503
317830,456,577,595
317834,573,478,559
317838,596,427,447
317842,489,497,426
317845,412,583,531
317849,479,558,605
317853,590,462,537
317857,578,440,439
317861,462,525,450
317865,412,594,559
317870,504,541,603
317874,601,448,512
317878,558,452,421
317882,438,544,465
317886,420,589,571
317890,529,515,589
317894,603,432,480
317898,531,463,410
317901,420,559,486
317905,436,577,589
317910,555,490,572
317914,601,428,459
317918,506,477,419
317922,414,560,511
317926,462,562,594
317930,580,488,548
317934,593,448,439
317938,479,499,433
317942,411,571,544
317946,489,553,604
317950,597,474,525
317955,575,454,422
317958,455,519,450
317962,416,575,558
317966,514,533,591
317970,604,457,497
317974,550,460,415
317978,435,535,467
317982,429,571,575
317986,542,515,577
317990,605,447,475
317995,524,468,418
317999,420,548,495
318003,447,562,591
318007,565,489,561
318011,597,439,450
318014,495,485,422
318018,409,560,520
318022,468,551,596
318026,582,471,539
318030,583,442,433
318034,469,503,434
318039,411,568,546
318043,495,543,599
318047,596,463,514
318051,565,451,420
318055,446,524,455
318059,419,575,566
318063,524,529,594
318067,605,454,489
318070,543,463,410
318074,430,540,477
318078,436,568,585
318083,551,507,572
318087,604,445,466
318091,515,476,420
318095,418,553,506
318099,457,562,596
318103,574,491,557
318107,594,444,444
318111,486,492,427
318115,412,565,529
318119,480,553,598
318124,589,478,532
318127,577,449,429
318131,461,512,444
318135,415,571,556
318139,506,541,600
318143,600,464,509
318147,555,461,426
318151,439,533,468
318155,423,572,576
318159,531,518,591
318163,602,447,490
318168,531,463,427
318172,423,540,497
318176,440,562,596
318180,558,500,573
318183,599,445,460
318187,504,485,423
318191,414,560,518
318195,463,560,600
318199,578,486,543
318203,588,444,436
318208,477,497,430
318212,411,565,537
318216,488,539,598
318220,593,459,523
318224,571,441,426
318228,455,513,453
318232,417,570,564
318236,515,534,596
318239,602,458,499
318243,548,459,423
318247,435,536,476
318252,432,570,582
318256,544,511,584
318260,605,444,475
318264,523,472,423
318268,421,553,500
318272,449,563,592
318276,566,481,562
318280,596,431,449
318284,494,493,422
318288,410,576,522
318292,471,559,596
318296,585,464,534
318300,583,435,428
318304,470,514,436
318308,415,585,549
318312,501,540,597
318316,601,445,509
318320,565,445,422
318324,447,538,463
318328,422,589,569
318332,526,522,585
318337,603,438,486
318341,537,464,420
318345,426,557,486
318349,434,579,586
318352,550,495,575
318356,600,429,468
318360,509,470,423
318364,412,555,508
318368,454,565,596
318372,573,491,550
318376,593,445,439
318381,484,512,426
318385,411,592,532
318389,481,566,599
318393,591,479,528
318397,575,454,423
318401,457,518,442
318405,412,578,552
318408,507,538,587
318412,599,459,497
318416,552,458,411
318420,435,530,457
318425,424,571,570
318429,536,518,582
318433,604,448,478
318437,529,470,417
318441,422,552,490
318445,442,571,590
318449,559,497,568
318453,597,441,460
318457,497,484,427
318461,411,560,521
318465,466,555,602
318469,581,477,545
318473,587,439,436
318477,475,498,432
318481,411,567,540
318485,491,542,599
318489,594,461,520
318493,566,446,424
318497,450,517,450
318501,418,571,563
318505,518,527,593
318510,604,448,494
318514,545,453,415
318518,428,533,473
318521,429,570,583
318525,546,514,586
318529,605,450,474
318533,521,478,419
318537,418,557,503
318541,451,567,597
318545,569,494,562
318550,598,443,450
318554,493,492,427
318558,411,567,528
318562,473,557,604
318566,587,477,537
318570,581,446,431
318574,463,507,438
318577,411,566,550
318581,500,533,598
318585,600,451,511
318589,561,448,419
318594,442,531,462
318598,420,577,567
318602,528,520,587
318606,604,445,486
318610,534,459,416
318614,422,540,482
318618,435,565,583
318622,553,499,569
318626,602,442,463
318630,508,481,421
318633,414,560,512
318638,458,562,601
318642,577,487,553
318646,594,444,442
318650,483,498,433
318654,410,569,537
318658,483,547,600
318662,592,466,525
318666,574,443,426
318670,457,512,448
318674,415,569,554
318679,511,527,588
318683,603,451,497
318687,554,454,412
318690,438,530,459
318694,427,568,567
318698,539,514,575
318702,606,443,476
318706,527,465,418
318710,419,546,493
318714,442,564,589
318718,562,492,561
318723,600,439,452
318727,498,493,429
318731,410,573,521
318735,465,559,598
318739,581,479,545
318743,583,443,441
318746,470,505,437
318750,408,573,545
318754,491,546,602
318758,598,467,521
318763,566,452,428
318767,447,520,457
318771,416,568,567
318775,520,523,592
318779,603,451,493
318783,542,461,418
318787,427,539,479
318791,430,570,579
318795,547,508,571
318799,606,445,462
318802,518,478,410
318807,416,558,499
318811,454,566,595
318815,573,492,557
318819,598,443,446
318823,492,491,425
318827,413,566,528
318831,479,555,606
318835,591,477,540
318839,582,450,435
318843,464,511,445
318848,409,574,558
318852,503,542,604
318856,600,458,507
318859,557,448,418
318863,439,524,460
318867,422,568,572
318871,531,517,587
318875,609,446,484
318879,531,462,414
318883,407,542,482
318887,418,566,583
318892,528,506,565
318896,571,451,457
318900,501,485,415
318904,417,561,511
318908,474,562,595
318912,588,487,546
318915,595,446,445
318919,491,500,437
318923,418,569,542
318927,489,545,604
318931,593,462,526
318936,568,445,426
318940,449,514,448
318944,409,570,560
318948,499,529,597
318952,576,452,504
318956,535,455,421
318960,422,532,475
318964,418,568,582
318968,542,507,583
318971,599,440,476
318976,505,466,418
318980,417,546,497
318984,456,561,592
318988,567,492,567
318992,586,438,456
318996,482,483,426
319000,403,564,524
319004,445,558,599
319008,558,480,544
319012,566,448,436
319016,470,510,436
319021,409,577,546
319025,487,545,599
319028,602,462,518
319032,580,452,424
319036,463,525,456
319040,429,575,562
319044,538,526,585
319048,615,449,489
319052,544,459,418
319056,424,537,480
319060,425,567,583
319065,542,508,577
319069,601,445,468
319073,511,476,419
319077,401,555,502
319081,456,564,591
319084,602,492,551
319088,620,445,441
319092,488,493,423
319096,396,567,525
319100,482,553,597
319105,612,475,530
319109,587,449,428
319113,439,513,444
319117,392,574,555
319121,516,545,593
319125,637,465,502
319129,578,460,414
319133,415,540,462
319137,391,581,573
319140,543,521,586
319144,627,449,479
319149,521,469,415
319153,393,547,485
319157,430,566,588
319161,577,496,571
319165,605,438,459
319169,457,478,419
319173,349,559,515
319177,465,558,601
319181,608,479,547
319185,617,440,435
319190,498,500,430
319193,397,572,535
319197,457,547,598
319201,606,469,520
319205,562,450,420
319209,443,517,448
319213,441,572,561
319217,550,533,594
319221,641,458,498
319225,587,463,419
319229,475,541,472
319234,461,574,579
319238,565,517,582
319242,627,451,475
319246,542,475,422
319249,441,556,496
319253,455,565,587
319257,552,488,557
319261,592,441,443
319265,520,499,421
319269,449,580,526
319273,483,562,601
319278,566,473,539
319282,580,440,432
319286,463,512,439
319290,391,580,547
319294,458,537,598
319298,609,447,513
319302,604,445,423
319305,497,534,457
319309,458,583,568
319313,538,523,590
319318,588,444,485
319322,526,459,415
319326,416,540,480
319330,427,570,589
319334,538,511,578
319338,601,447,466
319342,551,479,420
319346,468,555,506
319350,470,562,594
319354,523,489,552
319358,576,443,438
319362,530,492,421
319366,469,565,525
319370,508,551,593
319374,586,473,527
319378,580,450,429
319382,484,518,446
319386,428,579,556
319390,483,539,596
319394,583,457,503
319398,566,457,422
319403,452,533,469
319407,433,573,576
319411,517,516,586
319415,573,445,482
319418,516,467,422
319422,420,549,497
319426,432,567,596
319430,562,495,571
319434,626,436,459
319438,555,480,423
319442,460,558,515
319447,463,552,597
319451,536,475,546
319455,584,439,437
319459,501,498,433
319463,433,569,536
319467,464,542,592
319471,563,458,514
319474,569,445,419
319478,483,517,447
319482,441,569,560
319486,513,527,592
319491,576,453,497
319495,530,462,418
319499,439,539,474
319503,452,570,579
319507,541,506,575
319511,577,438,465
319515,494,471,418
319519,411,553,503
319523,451,565,597
319527,570,491,560
319531,609,438,452
319535,501,486,429
319539,402,560,523
319543,449,548,595
319547,567,471,534
319551,588,445,431
319555,498,512,439
319559,436,576,546
319563,500,538,591
319567,594,457,508
319571,553,453,420
319576,434,532,458
319580,423,578,569
319584,529,525,586
319587,613,449,485
319591,552,467,412
319595,433,548,484
319599,437,571,588
319603,564,504,574
319607,616,443,467
319611,508,478,421
319616,398,555,510
319620,451,558,597
319624,585,480,555
319628,601,438,444
319632,473,494,433
319636,379,566,535
319640,464,548,599
319643,596,471,530
319647,576,446,430
319651,427,510,451
319655,386,569,560
319660,514,528,595
319664,627,448,503
319668,563,451,417
319672,413,528,466
319676,402,569,576
319680,545,513,583
319684,634,444,476
319688,529,470,416
319692,392,555,494
319696,428,567,596
319699,589,482,571
319704,628,429,458
319708,483,488,424
319712,371,574,523
319716,451,558,601
319720,611,466,546
319724,605,432,438
319728,453,509,441
319732,375,583,548
319736,498,538,596
319740,638,443,510
319745,579,438,421
319749,408,528,451
319753,377,582,563
319756,533,519,588
319760,646,436,492
319764,544,454,419
319768,384,546,477
319772,399,573,583
319776,572,495,577
319780,646,427,472
319784,513,468,425
319789,373,562,513
319793,430,567,601
319797,594,479,565
319801,622,431,450
319805,475,492,430
319809,367,569,528
319812,476,554,598
319816,638,474,533
319820,592,451,435
319824,413,521,445
319828,358,578,549
319833,504,529,592
319837,646,445,502
319841,577,455,410
319845,402,541,464
319849,389,578,579
319853,548,514,590
319857,629,435,489
319861,516,456,424
319865,384,546,491
319868,429,574,588
319873,591,507,569
319877,634,447,465
319881,485,487,427
319885,368,567,517
319889,460,565,602
319893,623,484,552
319897,628,447,442
319901,465,517,432
319905,373,602,523
319909,489,585,577
319913,637,497,521
319918,585,483,424
319922,403,537,453
319925,367,575,569
319929,527,535,580
319933,643,499,457
319937,555,505,387
319941,384,543,473
319945,385,556,584
319949,568,480,591
319953,646,415,474
319958,523,464,409
319962,376,565,483
319966,415,587,582
319970,586,523,538
319974,630,465,435
319978,481,505,415
319981,378,594,492
319985,470,588,573
319989,629,503,498
319993,606,500,393
319997,437,549,427
320002,365,596,525
320006,493,581,568
320010,636,507,513
320014,575,448,424
320018,414,507,477
320022,387,590,569
320026,547,539,550
320030,658,492,417
320034,549,547,345
320037,388,572,457
320041,406,528,614
320046,584,433,620
320050,645,389,469
320054,490,514,397
320058,356,624,498
320062,433,602,590
320066,614,465,579
320070,630,405,408
320074,458,503,372
320078,346,592,519
320082,452,542,614
320087,630,455,538
320091,598,431,446
320094,421,565,416
320098,357,678,511
320102,495,598,603
320106,638,408,559
320110,553,412,458
320114,372,557,504
320118,379,617,603
320122,556,511,620
320126,643,447,437
320131,525,504,392
320135,385,617,507
320139,439,662,597
320143,615,507,584
320147,662,397,484
320150,486,441,467
320154,343,565,528
320158,461,598,588
320162,648,509,550
320166,630,450,424
320171,432,539,376
320175,336,629,520
320179,445,551,620
320183,593,426,533
320187,561,448,433
320191,389,544,483
320195,347,629,581
320199,510,535,617
320203,625,419,479
320206,507,429,420
320210,346,545,507
320215,391,571,610
320219,563,492,567
320223,675,407,484
320227,540,423,459
320231,312,545,510
320235,386,570,610
320239,584,484,546
320243,657,417,432
320247,539,545,395
320251,364,645,535
320256,449,578,618
320260,592,423,587
320263,569,368,464
320267,399,493,441
320271,385,671,517
320275,568,639,597
320279,686,428,547
320283,508,357,467
320287,365,452,518
320291,414,518,623
320295,642,461,623
320300,761,428,470
320304,607,465,411
320308,335,538,509
320312,400,550,613
320316,622,464,608
320319,680,438,457
320322,487,599,370
320326,345,624,538
320330,420,507,651
320334,615,383,586
320338,608,377,454
320343,469,486,448
320347,343,654,516
320351,475,616,653
320355,635,389,618
320359,589,315,485
320363,354,432,459
320367,310,552,552
320371,617,571,592
320375,856,454,498
320378,656,415,432
320382,299,537,481
320387,314,576,603
320391,604,451,610
320395,789,346,510
320399,541,433,432
320403,265,625,497
320407,407,654,565
320411,666,525,560
320415,664,426,468
320419,462,438,458
320423,296,540,537
320428,431,541,595
320432,713,432,567
320435,666,433,434
320439,405,522,424
320443,252,573,563
320447,490,535,616
320451,791,477,502
320455,686,435,450
320459,379,527,474
320463,355,558,604
320467,594,443,641
320472,731,380,495
320476,572,429,427
320480,335,552,485
320484,421,600,604
320488,680,495,552
320491,716,430,454
320495,446,482,442
320499,306,584,522
320503,442,594,578
320507,653,479,551
320512,626,403,425
320516,357,467,447
320520,316,543,559
320524,496,498,628
320528,709,379,560
320532,699,373,443
320536,403,548,398
320540,269,705,534
320544,562,575,603
320547,761,394,521
320551,585,396,413
320556,359,547,430
320560,376,593,585
320564,580,497,594
320568,651,452,461
320572,552,500,423
320576,394,562,497
320580,457,544,603
320584,657,409,589
320588,719,356,477
320592,509,451,416
320596,328,604,497
320601,435,603,590
320604,655,494,516
320608,677,396,438
320612,446,431,468
320616,313,533,559
320620,468,540,605
320624,654,466,525
320628,565,431,405
320632,349,504,430
320636,319,610,527
320641,496,558,578
320645,714,423,491
320649,614,403,439
320653,368,494,491
320657,347,551,581
320660,633,503,589
320664,781,413,490
320668,605,438,404
320672,372,533,479
320676,414,558,565
320680,612,483,549
320685,687,430,454
320689,492,480,431
320693,317,563,527
320697,428,616,574
320701,658,504,565
320705,655,465,424
320709,389,514,448
320713,273,596,497
320716,457,572,549
320720,684,427,513
320724,571,381,443
320729,316,479,487
320733,296,617,552
320737,585,511,607
320741,806,394,507
320745,633,433,420
320749,357,554,451
320753,390,589,587
320757,620,471,594
320761,695,400,478
320765,468,471,418
320770,292,590,499
320773,426,687,530
320777,672,557,547
320781,680,365,474
320785,436,413,420
320789,248,544,514
320793,398,514,598
320797,701,407,567
320801,679,407,438
320805,396,549,427
320809,285,647,522
320814,542,534,595
320818,755,391,511
320822,630,414,423
320826,362,601,402
320829,293,680,546
320833,565,497,612
320837,749,380,487
320841,535,434,411
320845,290,552,491
320849,352,541,603
320854,642,499,540
320858,711,481,427
320862,451,470,437
320866,279,557,516
320870,429,548,587
320874,709,476,522
320878,690,404,467
320882,364,460,463
320885,236,568,545
320889,450,569,566
320893,777,486,489
320898,707,448,440
320902,366,518,468
320906,276,569,567
320910,555,548,567
320914,776,456,500
320918,614,426,423
320922,325,503,518
320926,333,549,585
320930,597,498,553
320934,720,451,448
320939,476,507,382
320942,210,644,451
320945,343,693,566
320949,676,519,584
320953,686,333,521
320957,408,379,473
320961,284,490,527
320965,471,499,592
320969,733,424,539
320973,682,412,427
320977,368,509,409
320982,252,676,500
320986,490,683,530
320990,787,453,537
320994,664,405,440
320998,355,513,476
321001,318,558,587
321005,586,492,597
321009,750,422,487
321013,553,490,400
321017,273,568,451
321021,272,557,595
321026,555,472,569
321030,694,447,418
321034,496,517,407
321038,316,550,533
321042,427,522,590
321046,706,410,575
321050,723,396,432
321054,409,516,425
321057,296,599,506
321061,500,624,569
321065,736,487,564
321070,679,404,449
321074,365,517,454
321078,264,605,551
321082,521,519,594
321086,757,458,458
321090,611,448,409
321094,295,490,461
321098,253,543,567
321102,543,498,588
321106,740,442,489
321111,532,455,437
321114,252,542,478
321118,317,578,600
321122,607,520,549
321126,787,487,449
321130,541,466,432
321134,311,539,514
321138,436,576,556
321142,684,490,507
321146,685,398,423
321150,395,474,430
321155,276,561,566
321159,498,527,617
321163,728,478,505
321167,617,519,419
321170,330,552,456
321174,289,569,560
321178,554,504,589
321182,710,436,472
321186,557,435,407
321190,298,502,496
321195,308,552,590
321199,603,520,570
321203,743,481,468
321207,498,484,423
321211,311,532,496
321215,425,554,588
321219,704,481,541
321222,726,447,423
321225,422,531,406
321229,254,599,532
321233,448,553,607
321238,742,442,544
321242,695,447,419
321246,368,587,418
321250,231,646,548
321254,493,523,622
321258,755,417,518
321262,631,427,427
321266,292,540,452
321270,223,604,543
321274,498,518,599
321277,737,426,504
321281,591,475,425
321285,317,544,449
321289,356,541,554
321293,623,456,582
321297,769,447,430
321301,545,534,391
321305,305,588,517
321309,399,567,617
321313,695,497,558
321317,720,447,414
321321,432,524,391
321326,243,592,540
321330,436,531,624
321334,704,452,518
321337,642,476,415
321341,367,497,464
321345,284,546,571
321349,509,550,584
321353,703,455,478
321357,586,415,433
321361,303,532,454
321366,309,584,557
321370,565,463,613
321374,717,397,481
321378,557,512,398
321382,299,666,469
321386,393,634,580
321390,676,461,578
321393,714,358,490
321397,487,429,416
321401,301,553,495
321405,450,538,588
321410,706,439,557
321414,694,426,424
321418,388,537,387
321422,248,636,521
321426,448,566,582
321430,695,436,524
321434,637,446,419
321438,328,568,461
321442,264,642,566
321446,526,519,605
321449,728,410,485
321454,583,442,401
321458,309,570,485
321462,350,601,581
321466,665,501,568
321470,752,386,461
321474,468,461,419
321478,265,612,479
321482,386,611,575
321486,702,484,570
321490,722,405,473
321495,460,468,428
321499,262,601,500
321503,434,572,601
321506,697,450,539
321510,651,430,426
321514,355,529,443
321518,255,615,530
321522,510,527,604
321526,743,420,506
321530,610,444,404
321534,287,565,469
321539,266,626,568
321543,597,516,604
321547,761,424,520
321551,546,467,443
321555,296,578,481
321558,371,612,578
321561,650,521,563
321565,748,403,488
321569,495,464,433
321573,229,593,487
321577,382,562,589
321582,721,442,561
321586,718,404,462
321590,395,526,436
321594,250,604,539
321598,483,568,573
321602,738,454,497
321606,651,432,433
321610,342,520,469
321614,262,581,553
321617,544,535,579
321622,764,457,489
321626,589,485,408
321630,271,564,467
321634,278,604,576
321638,601,547,561
321642,771,431,473
321646,542,457,422
321650,295,546,513
321654,355,536,608
321658,642,451,585
321662,744,462,452
321667,498,560,384
321671,290,582,495
321674,454,530,606
321678,715,450,542
321682,638,428,427
321686,335,496,442
321690,276,575,541
321694,526,562,574
321698,753,449,526
321702,618,436,409
321707,325,539,442
321711,301,641,547
321715,571,627,579
321719,763,438,520
321723,583,403,433
321727,284,524,464
321730,304,611,573
321734,599,557,544
321738,731,416,483
321742,486,440,431
321746,267,552,527
321751,397,575,616
321755,710,481,547
321759,733,437,436
321763,423,507,404
321767,256,591,535
321771,445,563,617
321775,713,453,533
321779,656,417,430
321783,345,492,443
321786,264,575,527
321790,516,566,559
321795,748,489,474
321799,627,455,432
321803,336,525,495
321807,320,607,562
321811,595,593,579
321815,715,481,463
321819,502,517,379
321823,283,587,496
321827,374,546,636
321831,679,439,592
321836,763,367,476
321840,456,448,434
321843,221,586,500
321847,420,583,580
321851,729,494,541
321855,733,421,448
321859,431,507,432
321863,249,615,527
321867,452,573,596
321871,710,456,542
321875,635,433,426
321880,349,523,463
321884,278,572,550
321888,540,508,586
321892,749,403,495
321896,581,474,417
321899,282,612,455
321903,316,650,557
321907,625,543,555
321911,779,414,481
321915,514,435,446
321920,254,538,525
321924,362,572,597
321928,661,506,553
321932,726,472,449
321936,454,517,395
321940,252,562,544
321944,428,526,615
321948,714,441,549
321952,683,416,433
321955,386,503,412
321959,280,609,507
321964,509,575,599
321968,743,442,568
321972,611,416,464
321976,312,513,466
321980,262,587,559
321984,567,537,562
321988,774,484,459
321992,571,519,399
321996,250,597,464
322000,294,586,595
322004,634,499,590
322009,752,411,472
322012,470,452,469
322016,242,556,510
322020,392,578,581
322024,694,482,573
322028,729,428,446
322032,433,508,398
322036,261,629,501
322040,470,574,608
322044,732,441,539
322049,637,404,450
322053,348,531,429
322057,277,611,537
322061,538,540,577
322065,762,445,511
322068,604,423,458
322072,270,544,449
322076,276,573,569
322080,607,489,587
322084,774,449,454
322088,550,521,395
322093,282,592,477
322097,374,595,589
322101,663,495,569
322105,730,416,466
322109,442,455,410
322113,262,571,519
322117,418,580,567
322121,693,500,539
322124,702,427,476
322128,385,493,441
322132,227,615,511
322137,470,571,606
322141,745,426,544
322145,647,402,423
322149,349,541,430
322153,290,644,548
322157,545,532,627
322161,748,399,521
322165,548,403,427
322169,276,525,474
322173,331,608,546
322178,628,585,526
322181,768,467,466
322185,527,456,426
322189,272,534,505
322193,359,560,576
322197,658,508,549
322201,732,452,445
322205,449,484,437
322209,251,573,526
322213,436,607,586
322217,710,574,491
322222,676,456,465
322226,382,467,474
322230,257,545,571
322234,511,526,593
322237,770,462,496
322241,632,439,422
322245,327,527,475
322249,306,602,557
322253,602,547,568
322257,758,418,488
322262,509,432,417
322266,250,567,472
322270,341,605,580
322274,644,556,562
322278,732,463,458
322282,468,466,419
322286,262,574,494
322290,425,584,583
322293,728,473,576
322297,711,393,485
322301,409,482,440
322306,263,607,507
322310,470,606,570
322314,729,460,537
322318,665,421,452
322322,362,531,433
322326,260,628,553
322330,532,576,597
322334,764,414,523
322338,607,412,418
322342,305,567,448
322347,287,630,547
322350,593,531,575
322354,748,404,480
322358,527,426,422
322362,289,546,518
322366,378,604,578
322370,675,572,531
322374,716,432,502
322378,425,432,444
322382,264,556,497
322386,452,582,580
322391,746,484,543
322395,716,478,429
322399,402,542,429
322403,264,596,552
322406,494,573,598
322410,733,446,518
322414,620,394,423
322418,305,481,495
322422,257,568,607
322426,561,519,617
322430,767,443,495
322435,581,494,426
322439,297,578,483
322443,365,597,561
322447,649,526,540
322451,758,460,449
322455,511,464,444
322459,261,536,539
322462,376,556,610
322466,692,444,566
322470,714,393,438
322475,422,506,396
322479,247,615,507
322483,456,599,615
322487,726,496,532
322491,672,409,442
322495,367,480,436
322499,275,572,538
322503,540,521,644
322507,766,434,545
322511,612,461,417
322515,313,552,479
322519,307,591,592
322523,604,506,592
322527,757,456,445
322531,530,527,366
322535,265,600,497
322539,381,565,617
322543,677,452,581
322547,738,404,431
322551,473,505,390
322555,287,592,513
322560,442,542,594
322564,730,445,521
322568,700,422,429
322572,408,499,441
322575,283,570,562
322579,503,559,609
322583,732,543,487
322587,626,490,438
322591,340,501,476
322595,294,542,568
322599,559,497,581
322604,762,409,516
322608,612,452,423
322612,315,552,459
322616,311,570,586
322620,611,494,580
322624,758,479,435
322628,536,502,409
322631,305,561,513
322635,385,544,612
322639,675,440,565
322643,712,418,436
322648,454,557,405
322652,269,611,532
322656,430,548,615
322660,703,426,549
322664,673,412,434
322668,410,533,430
322672,298,605,543
322676,523,533,615
322680,744,414,536
322684,647,410,421
322688,348,550,428
322692,288,640,570
322696,559,554,602
322700,769,399,500
322704,588,409,429
322708,319,534,476
322712,357,588,600
322716,642,532,563
322720,743,465,436
322724,515,524,392
322728,306,599,515
322733,404,555,625
322737,672,445,592
322741,710,400,443
322744,435,498,399
322748,301,620,514
322752,494,566,607
322756,732,451,543
322760,653,439,429
322764,373,540,438
322768,289,617,523
322772,548,570,551
322777,760,446,516
322781,600,425,423
322785,302,538,480
322789,331,585,587
322793,618,490,594
322797,736,418,477
322800,529,498,407
322804,317,626,476
322808,393,620,596
322812,685,470,579
322817,745,397,462
322821,468,489,396
322825,264,625,482
322829,440,588,605
322833,706,446,523
322837,692,365,440
322841,409,459,460
322845,279,595,531
322849,484,569,599
322853,713,428,530
322856,623,421,423
322861,373,557,440
322865,319,630,560
322869,569,528,592
322873,749,417,480
322877,590,446,420
322881,339,547,461
322885,369,604,604
322889,633,527,571
322893,752,394,517
322897,526,464,402
322902,296,585,492
322906,395,558,620
322910,676,462,579
322913,731,411,461
322917,462,462,439
322921,284,578,510
322925,468,586,581
322929,703,499,545
322933,644,422,456
322937,402,480,472
322941,309,575,545
322946,538,543,589
322950,747,417,523
322954,608,432,415
322958,341,564,454
322962,348,591,577
322966,607,498,586
322969,755,411,481
322973,552,444,410
322977,325,595,461
322981,389,625,619
322985,663,501,574
322990,748,405,458
322994,508,451,453
322998,298,577,519
323002,417,592,578
323006,656,481,555
323010,641,414,465
323014,416,503,419
323018,302,604,513
323022,506,548,625
323025,731,440,553
323030,642,416,451
323034,363,520,422
323038,295,622,547
323042,557,569,587
323046,752,451,487
323050,599,449,423
323054,347,544,463
323058,353,580,595
323062,636,482,603
323066,767,399,490
323070,539,448,400
323075,303,577,472
323079,415,601,585
323082,685,511,551
323086,715,430,457
323090,445,481,452
323094,282,564,550
323098,460,568,617
323102,707,458,568
323106,671,401,444
323110,404,526,403
323115,290,675,511
323119,505,571,604
323123,751,401,551
323127,639,405,399
323131,354,524,458
323135,327,573,578
323138,583,531,588
323142,715,444,501
323146,541,471,394
323150,335,592,479
323154,382,617,592
323159,646,536,545
323163,718,456,448
323167,479,502,413
323171,287,578,531
323175,403,541,632
323179,674,423,604
323183,693,404,463
323187,444,521,405
323191,299,607,545
323194,474,540,621
323198,682,409,553
323203,602,416,426
323207,356,567,416
323211,298,618,596
323215,546,534,595
323219,743,413,510
323223,582,414,428
323227,306,569,450
323231,298,603,556
323235,567,481,595
323239,726,378,457
323244,541,431,403
323248,298,572,474
323251,354,588,587
323255,632,487,572
323259,710,423,486
323263,467,485,434
323267,291,593,511
323271,430,603,576
323275,674,469,568
323279,664,389,451
323283,395,504,446
323288,301,619,549
323292,504,566,627
323296,703,427,538
323300,624,419,415
323304,376,507,453
323307,318,578,565
323311,549,517,582
323315,720,411,483
323319,564,432,398
323323,316,565,447
323328,347,631,563
323332,623,533,565
323336,741,430,452
323340,502,528,385
323344,282,593,536
323348,385,553,635
323352,646,437,575
323356,697,377,446
323360,463,495,441
323363,307,614,526
323367,460,573,629
323372,690,450,549
323376,649,425,389
323380,391,536,426
323384,297,627,546
323388,514,543,608
323392,719,417,515
323396,608,465,414
323400,340,550,487
323404,310,578,575
323408,566,482,596
323412,720,394,487
323417,551,526,367
323420,307,694,451
323424,351,619,603
323428,616,429,606
323432,695,331,492
323436,474,444,439
323440,294,592,527
323444,412,584,600
323448,682,463,548
323452,683,411,436
323457,411,497,439
323461,293,604,540
323465,478,586,589
323469,711,455,556
323473,629,405,452
323476,352,524,455
323480,276,619,513
323484,545,540,571
323488,741,444,500
323492,591,458,418
323496,332,550,482
323501,342,581,587
323505,596,513,566
323509,717,453,442
323513,515,474,446
323517,277,596,474
323521,362,584,591
323525,628,413,598
323529,703,353,464
323532,462,516,406
323536,283,632,522
323540,426,561,624
323545,689,438,531
323549,674,432,386
323553,402,534,456
323557,290,617,561
323561,494,571,584
323565,715,426,516
323569,623,380,440
323573,358,505,473
323577,319,598,573
323581,558,548,579
323586,701,512,481
323589,541,538,390
323593,315,580,469
323597,348,541,606
323601,600,430,592
323605,711,380,454
323609,500,479,382
323613,288,592,510
323617,398,577,569
323621,664,521,546
323625,691,418,498
323630,436,452,460
323634,284,552,548
323638,453,536,579
323642,678,497,516
323645,624,500,424
323649,364,530,472
323653,280,593,558
323657,514,553,573
323661,725,435,504
323665,608,395,440
323670,341,511,474
323674,325,592,567
323678,585,494,600
323682,714,400,480
323686,532,458,375
323690,294,595,466
323694,365,625,549
323698,647,524,579
323701,714,392,491
323705,470,442,420
323709,268,557,529
323714,408,543,637
323718,660,428,584
323722,665,429,428
323726,416,524,430
323730,299,584,558
323734,494,537,607
323738,723,436,498
323742,643,431,419
323746,355,522,431
323750,303,600,506
323755,546,568,577
323758,724,468,483
323762,577,455,451
323766,328,587,475
323770,331,604,550
323774,589,486,577
323778,687,378,521
323782,486,427,442
323786,291,564,506
323790,397,611,576
323794,648,488,536
323799,691,423,458
323803,465,478,442
323807,295,558,521
323811,464,540,580
323814,701,448,542
323818,663,413,435
323822,401,520,415
323826,291,612,531
323830,496,553,571
323834,701,475,477
323838,598,489,435
323843,353,554,469
323847,313,621,515
323851,564,593,536
323855,714,449,527
323859,533,435,472
323863,293,504,514
323867,354,524,609
323870,637,459,579
323874,713,448,451
323878,493,503,417
323883,289,576,496
323887,415,545,611
323891,670,433,579
323895,657,404,465
323899,404,521,439
323903,265,625,528
323907,447,567,590
323911,701,463,501
323915,652,443,412
323919,389,527,448
323922,299,615,519
323926,524,567,545
323930,710,429,521
323934,584,433,462
323938,327,564,486
323942,314,608,569
323946,591,480,630
323950,731,359,527
323954,523,422,435
323958,302,577,467
323962,372,604,563
323966,629,516,552
323971,693,423,475
323975,441,446,435
323978,255,553,523
323981,431,550,598
323985,698,433,550
323989,674,392,435
323993,414,504,445
323997,275,606,534
324001,478,553,579
324005,707,443,517
324009,622,462,384
324014,357,611,411
324018,306,666,533
324022,541,567,590
324026,707,408,526
324030,546,392,456
324034,322,526,487
324037,343,601,572
324041,607,516,581
324045,710,398,479
324049,503,451,424
324054,277,605,463
324058,394,635,577
324062,670,500,563
324066,687,379,474
324070,427,470,439
324074,273,598,538
324078,449,542,607
324082,695,405,542
324086,644,384,435
324090,382,532,420
324093,309,646,504
324098,530,589,599
324102,720,423,543
324106,584,421,412
324110,313,529,465
324114,314,586,606
324118,571,504,604
324122,707,420,492
324126,535,450,427
324130,313,587,456
324134,374,622,559
324139,628,520,572
324143,714,424,473
324147,503,469,415
324150,302,612,467
324154,404,627,575
324158,667,474,567
324162,682,412,461
324166,417,492,424
324170,275,624,501
324174,459,617,567
324178,687,433,572
324183,630,366,478
324187,374,479,472
324191,307,622,532
324195,528,544,592
324199,718,401,507
324203,577,424,439
324206,316,591,444
324210,345,653,555
324214,615,525,582
324218,736,389,493
324222,531,450,409
324227,294,576,493
324231,367,613,609
324235,635,516,588
324239,706,389,464
324243,468,446,424
324247,293,575,470
324251,435,557,589
324255,681,422,573
324259,662,383,444
324262,401,505,424
324267,273,630,531
324271,485,574,617
324275,720,415,532
324279,608,401,443
324283,344,534,464
324287,315,620,548
324291,578,542,585
324295,747,416,463
324299,575,480,344
324303,322,609,447
324307,353,594,601
324312,614,459,582
324316,718,378,460
324319,487,480,394
324323,284,614,507
324327,396,584,612
324331,667,496,560
324335,701,453,421
324339,444,497,448
324343,271,575,534
324347,453,526,607
324352,709,411,545
324356,650,398,447
324360,378,532,440
324364,291,635,542
324368,544,535,606
324372,754,399,519
324375,604,436,399
324379,323,594,396
324383,314,657,542
324387,587,551,579
324391,744,414,502
324396,553,432,436
324400,308,552,478
324404,357,611,570
324408,624,544,576
324412,712,432,466
324416,480,499,370
324420,291,607,505
324424,427,570,621
324428,674,444,581
324431,675,385,463
324435,416,495,435
324440,296,606,538
324444,505,533,631
324448,740,398,561
324452,641,403,430
324456,354,563,411
324460,262,670,536
324464,521,534,609
324468,749,364,511
324472,608,433,404
324476,346,598,438
324481,356,601,574
324485,621,457,581
324488,716,366,486
324492,507,449,394
324496,292,587,494
324500,389,586,608
324504,674,473,556
324508,720,424,482
324512,465,497,464
324516,266,601,516
324520,418,584,568
324525,676,467,512
324529,667,414,450
324533,407,537,429
324537,309,639,513
324541,519,546,600
324545,721,425,529
324549,619,424,448
324553,344,515,457
324557,311,573,551
324561,583,515,548
324566,752,434,485
324570,570,471,409
324574,306,570,494
324578,348,587,609
324582,635,452,591
324586,736,366,462
324590,505,476,434
324594,286,614,540
324597,395,606,619
324601,644,482,540
324605,679,399,421
324610,455,470,407
324614,316,577,482
324618,491,557,597
324622,712,449,567
324626,634,446,446
324630,368,539,462
324634,300,588,553
324638,548,516,568
324642,748,450,431
324646,588,490,337
324651,316,574,467
324654,318,598,612
324658,594,472,597
324662,737,375,451
324666,533,449,359
324670,295,582,499
324674,372,573,602
324678,658,459,567
324682,738,401,472
324686,487,508,398
324690,289,637,568
324695,427,587,682
324699,685,452,557
324703,678,396,444
324707,408,465,454
324710,298,576,532
324714,510,541,608
324718,737,410,531
324722,635,409,425
324726,344,567,425
324730,282,658,532
324734,554,562,580
324739,729,427,476
324743,556,429,413
324747,312,541,483
324751,351,597,573
324755,625,531,559
324759,742,434,464
324763,519,483,454
324766,291,577,509
324770,393,569,587
324774,663,462,573
324779,714,420,481
324783,449,532,407
324787,270,645,518
324791,454,586,608
324795,708,441,546
324799,665,390,431
324803,390,486,424
324807,279,614,508
324811,527,598,570
324815,745,459,511
324819,623,402,475
324823,337,516,483
324827,313,605,571
324831,583,533,585
324835,736,432,504
324839,551,476,399
324843,306,594,459
324847,359,598,603
324851,644,466,614
324855,724,376,475
324859,454,491,401
324864,266,630,488
324868,419,578,599
324872,696,438,535
324876,695,399,437
324879,413,516,435
324883,261,642,504
324887,474,574,604
324891,727,431,507
324895,670,433,416
324899,379,595,436
324903,290,691,543
324908,526,538,615
324912,737,378,531
324916,599,414,441
324920,340,561,472
324924,337,585,586
324928,607,470,611
324932,739,373,508
324935,526,456,420
324939,301,586,494
324943,396,599,562
324947,660,519,517
324952,681,432,431
324956,441,468,446
324960,291,556,533
324964,456,529,630
324968,703,445,544
324972,679,460,431
324976,414,548,422
324980,289,624,538
324984,507,538,621
324988,743,415,530
324992,631,416,436
324996,347,529,477
325000,317,588,572
325004,561,505,591
325008,740,402,489
325012,576,474,397
325016,320,647,438
325020,351,642,571
325024,607,477,596
325028,691,359,476
325032,479,426,423
325037,289,574,512
325041,392,624,558
325045,660,519,523
325048,725,401,460
325052,455,492,433
325056,275,590,556
325060,459,539,596
325064,719,446,500
325068,673,434,457
325072,391,518,454
325076,300,586,543
325081,533,520,602
325085,735,416,496
325089,607,496,384
325093,328,622,456
325097,316,613,586
325101,582,469,617
325104,728,346,517
325108,544,410,438
325112,323,569,473
325116,389,618,549
325121,654,516,538
325125,724,421,456
325129,478,473,437
325133,268,576,515
325137,415,554,616
325141,680,435,572
325145,658,432,423
325149,383,576,438
325153,284,652,534
325157,505,543,609
325160,736,399,521
325165,640,395,424
325169,376,523,461
325173,320,605,580
325177,561,511,588
325181,729,416,450
325185,578,445,405
325189,334,563,462
325193,352,619,590
325197,618,515,611
325201,734,402,499
325206,521,466,402
325210,294,620,461
325214,390,623,598
325217,676,460,582
325221,694,379,470
325225,428,477,434
325229,297,621,510
325233,461,588,602
325237,710,448,567
325241,670,408,429
325245,384,512,398
325250,294,576,540
325254,528,519,596
325258,730,418,519
325262,621,419,434
325266,364,545,457
325270,332,620,549
325273,586,519,591
325277,741,401,503
325281,567,463,414
325285,306,573,504
325289,345,579,607
325294,635,478,572
325298,714,401,464
325302,490,485,396
325306,293,616,523
325310,420,582,606
325314,698,443,573
325318,693,389,484
325322,422,527,426
325326,294,691,494
325329,474,599,565
325334,698,408,553
325338,630,383,450
325342,373,555,420
325346,318,620,550
325350,549,496,605
325354,746,369,518
325358,610,402,428
325362,331,527,470
325366,313,601,530
325370,589,513,559
325374,735,412,490
325379,537,475,420
325383,303,611,528
325386,380,613,611
325390,664,482,583
325394,697,427,445
325398,423,524,416
325402,251,648,498
325406,438,566,608
325410,729,416,555
325414,706,390,442
325419,422,564,412
325423,291,667,513
325427,500,535,579
325431,726,398,522
325435,634,390,406
325439,355,536,430
325442,295,683,531
325446,556,563,610
325450,737,367,516
325454,572,376,424
325458,322,518,475
325463,353,597,561
325467,621,520,579
325471,734,405,507
325475,504,472,421
325479,293,620,472
325483,403,648,576
325487,679,531,547
325491,698,395,485
325495,422,444,457
325498,269,548,528
325502,445,542,558
325507,725,498,507
325511,686,494,438
325515,396,541,476
325519,301,610,554
325523,548,575,561
325527,727,442,508
325531,595,400,429
325535,324,504,438
325539,306,598,548
325543,595,499,599
325548,760,386,520
325552,550,443,423
325555,288,595,472
325559,361,627,591
325563,650,489,594
325567,740,378,483
325571,498,447,415
325575,286,562,501
325579,413,553,589
325583,685,459,535
325587,681,428,416
325592,420,521,412
325596,300,608,516
325600,483,572,607
325604,715,461,541
325608,636,466,425
325611,361,571,437
325615,292,620,549
325619,560,536,616
325623,756,406,552
325627,601,422,441
325632,330,549,483
325636,318,563,563
325640,607,483,534
325644,741,431,445
325648,507,450,435
325652,261,565,534
325656,390,558,600
325660,686,473,544
325664,742,413,457
325667,482,498,418
325671,288,625,521
325676,440,556,610
325680,699,433,536
325684,670,421,444
325688,395,503,437
325692,294,604,517
325696,517,575,601
325700,734,446,534
325704,617,438,431
325708,331,532,475
325712,289,629,561
325716,544,571,588
325721,729,411,502
325724,552,405,423
325728,301,533,476
325732,361,570,599
325736,643,501,581
325740,737,441,452
325744,508,495,393
325748,299,602,478
325752,413,577,607
325756,669,431,577
325761,679,378,458
325765,433,519,393
325769,290,624,528
325773,473,562,608
325777,720,466,532
325780,648,474,453
325784,364,566,434
325788,293,588,558
325792,545,502,617
325796,756,384,534
325800,607,419,419
325805,318,580,441
325809,316,620,577
325813,593,527,592
325817,732,398,481
325821,538,418,416
325825,291,538,482
325829,376,563,587
325833,656,468,571
325836,731,407,441
325840,472,472,411
325844,270,601,499
325849,418,624,591
325853,704,483,565
325857,700,433,443
325861,385,528,428
325865,258,576,544
325869,505,539,615
325873,747,446,544
325877,648,448,427
325881,358,515,459
325885,291,574,562
325890,548,506,590
325893,737,441,512
325897,584,452,415
325901,324,547,466
325905,346,588,550
325909,628,528,567
325913,730,411,509
325917,523,442,439
325921,299,543,498
325925,394,560,583
325929,668,476,536
325934,700,421,438
325938,434,495,416
325942,270,620,514
325946,466,583,595
325949,722,458,536
325953,670,470,388
325957,373,558,446
325961,272,617,562
325965,504,524,618
325969,735,382,531
325974,606,395,433
325978,339,537,459
325982,320,627,552
325986,591,569,545
325990,744,445,506
325994,543,449,392
325998,278,569,481
326002,333,562,612
326005,646,457,588
326009,734,384,474
326013,497,464,430
326018,299,586,506
326022,417,561,608
326026,690,451,557
326030,701,413,416
326034,431,521,377
326038,281,631,525
326042,463,560,626
326046,702,424,549
326050,633,414,399
326054,350,528,443
326059,286,646,540
326062,534,552,611
326066,733,419,525
326070,594,435,434
326074,305,557,442
326078,307,586,499
326082,616,513,535
326086,754,437,502
326090,535,469,430
326094,294,587,471
326098,378,631,587
326103,660,523,584
326107,715,389,499
326111,463,421,467
326115,277,521,527
326118,438,543,600
326122,719,467,544
326126,673,413,417
326130,376,523,407
326134,256,607,553
326138,487,552,603
326142,751,442,527
326147,645,428,453
326151,350,535,460
326155,285,609,557
326159,539,551,593
326163,745,424,516
326167,565,440,431
326171,308,567,465
326174,358,599,573
326178,634,488,591
326182,722,409,472
326187,464,486,374
326191,263,606,496
326195,403,594,608
326199,703,521,530
326203,718,437,444
326207,434,459,441
326211,282,553,530
326215,480,536,605
326219,720,443,535
326223,653,430,428
326227,380,532,431
326231,289,601,553
326235,526,521,618
326239,724,428,538
326243,601,452,414
326247,339,574,439
326251,339,618,559
326255,603,515,570
326259,740,433,473
326263,538,483,416
326267,284,592,476
326272,361,598,576
326276,652,467,575
326280,722,397,483
326283,466,466,451
326286,270,568,489
326290,429,569,573
326294,701,459,555
326298,690,413,453
326302,411,501,429
326306,277,590,533
326310,471,539,602
326315,724,440,531
326319,651,417,442
326323,365,514,462
326327,287,597,549
326331,539,549,581
326335,748,450,486
326338,586,469,381
326341,318,581,448
326345,340,593,606
326349,615,486,588
326353,735,405,478
326358,506,458,432
326362,272,586,502
326366,387,609,589
326370,679,479,576
326374,719,393,449
326378,441,472,412
326382,279,581,527
326386,437,556,613
326390,698,443,556
326393,679,422,431
326396,397,532,421
326401,294,628,527
326405,512,589,561
326409,725,478,516
326413,611,418,437
326417,342,524,446
326421,327,594,566
326425,596,528,594
326429,745,428,501
326433,533,450,418
326437,276,540,480
326441,367,565,607
326446,645,495,596
326450,731,424,469
326453,486,499,388
326457,269,593,478
326461,414,566,607
326465,694,480,578
326469,694,442,441
326473,404,521,415
326477,256,603,533
326481,477,541,593
326486,724,450,561
326490,661,423,455
326494,384,540,443
326498,295,604,544
326502,528,547,568
326506,741,440,535
326509,609,416,453
326513,321,518,473
326517,311,589,527
326521,613,525,557
326525,752,409,501
326530,540,433,441
326534,274,563,495
326538,353,595,587
326542,649,498,583
326546,710,409,476
326550,447,468,434
326554,267,577,532
326558,425,590,578
326562,716,492,535
326565,711,428,433
326569,410,524,432
326574,269,620,536
326578,510,558,574
326582,747,452,477
326586,631,433,415
326590,329,513,472
326594,275,569,579
326598,552,521,582
326602,732,416,498
326606,595,431,441
326610,338,542,505
326615,340,605,564
326618,621,554,537
326622,723,456,479
326626,499,443,447
326630,269,541,499
326634,400,585,558
326638,674,463,576
326642,701,390,470
326646,424,504,428
326650,277,620,515
326654,465,584,581
326659,718,440,548
326663,670,398,447
326667,380,484,441
326671,274,580,553
326674,480,546,579
326678,720,465,471
326682,644,506,391
326686,362,596,453
326690,322,591,592
326694,593,488,614
326699,737,372,519
326703,534,437,413
326707,294,600,489
326711,364,643,567
326715,648,487,568
326719,704,373,464
326723,483,445,422
326727,281,577,496
326730,426,567,592
326734,693,442,544
326738,698,395,445
326743,419,500,431
326747,269,611,523
326751,479,571,590
326755,721,455,539
326759,640,425,446
326763,350,560,450
326767,280,645,565
326771,539,546,593
326775,733,410,512
326779,594,419,423
326784,336,556,449
326787,342,609,539
326791,624,495,540
326795,734,404,461
326799,495,463,431
326803,253,583,498
326807,377,578,597
326811,684,449,579
326815,738,397,467
326819,441,487,435
326823,218,619,495
326828,399,604,581
326832,721,455,549
326836,719,400,454
326840,427,509,454
326843,308,599,534
326847,496,533,584
326851,715,427,527
326855,615,440,421
326859,332,560,442
326863,313,619,554
326867,595,523,590
326872,759,404,497
326876,551,449,416
326880,294,591,451
326884,359,610,581
326888,630,484,598
326892,725,390,465
326896,466,469,400
326899,246,586,513
326903,410,591,621
326907,704,467,583
326912,720,423,423
326916,437,505,420
326920,272,603,512
326924,459,573,579
326928,713,432,546
326932,651,393,458
326936,369,520,437
326940,280,624,510
326944,531,541,597
326948,744,398,528
326952,603,417,440
326956,320,556,463
326960,313,618,581
326964,567,505,604
326968,743,407,486
326972,548,452,436
326976,299,566,498
326980,361,578,579
326984,641,484,573
326988,727,426,452
326992,479,486,417
326996,276,586,532
327001,423,562,593
327005,699,466,520
327009,698,439,409
327012,420,516,438
327016,276,606,545
327020,476,569,587
327024,719,442,527
327028,620,431,455
327032,358,552,478
327036,309,600,586
327041,558,495,605
327045,731,394,495
327049,565,445,433
327053,304,571,462
327057,348,616,591
327061,635,502,581
327065,750,409,463
327068,509,490,397
327072,280,609,504
327076,386,587,587
327080,668,474,535
327085,701,400,455
327089,432,463,445
327093,266,587,527
327097,448,566,586
327101,715,423,539
327105,669,406,444
327109,376,557,418
327113,279,650,547
327117,530,553,612
327121,752,412,521
327124,611,442,410
327129,325,581,449
327133,318,616,539
327137,588,525,539
327141,741,406,504
327145,546,417,460
327149,286,539,519
327153,320,588,600
327157,613,521,556
327161,732,422,443
327165,500,478,409
327170,280,590,534
327174,410,565,608
327178,672,419,556
327181,680,374,438
327185,436,486,425
327189,299,599,531
327193,497,540,594
327197,739,418,518
327201,643,419,415
327205,332,559,431
327209,264,638,568
327214,541,547,601
327218,754,413,521
327222,609,441,430
327226,315,564,476
327230,316,615,569
327234,587,513,578
327237,716,417,467
327241,516,471,406
327245,296,594,468
327249,386,583,595
327254,665,456,591
327258,700,377,478
327262,447,482,415
327266,280,617,500
327270,456,577,598
327274,726,439,564
327278,683,393,451
327282,400,512,416
327286,277,629,518
327290,489,588,577
327293,726,479,490
327298,620,434,413
327302,348,523,479
327306,319,588,574
327310,584,517,565
327314,732,424,472
327318,541,478,412
327322,296,624,455
327326,342,609,604
327330,643,461,592
327334,741,378,474
327339,492,462,434
327343,262,556,540
327347,384,539,619
327350,677,418,565
327354,707,374,450
327358,420,497,448
327362,268,625,508
327366,486,589,550
327370,736,460,515
327374,666,438,435
327378,368,565,404
327383,274,639,534
327387,512,535,610
327391,745,391,526
327395,614,406,425
327399,328,562,439
327403,308,626,563
327406,599,500,602
327410,747,400,510
327414,548,451,424
327418,277,567,472
327422,350,596,578
327427,640,493,583
327431,724,427,458
327435,466,492,432
327439,272,583,534
327443,427,557,604
327447,696,438,548
327451,688,411,452
327455,403,500,438
327459,263,580,527
327462,491,568,563
327467,757,456,534
327471,662,413,438
327475,360,514,436
327479,293,597,530
327483,547,539,583
327487,730,429,495
327491,549,438,424
327495,293,581,457
327499,304,642,573
327503,588,511,603
327507,712,405,517
327512,508,454,460
327516,289,562,507
327519,411,577,561
327523,684,502,539
327527,701,422,448
327531,434,481,403
327535,286,584,534
327539,460,540,640
327543,720,435,525
327547,686,409,420
327552,401,523,416
327556,290,608,546
327560,521,526,625
327564,738,413,514
327568,607,439,393
327572,315,550,461
327575,260,601,574
327579,556,517,579
327583,738,437,464
327587,557,471,427
327591,297,571,524
327596,356,580,600
327600,667,487,570
327604,751,404,492
327608,495,478,440
327612,261,582,475
327616,396,559,556
327620,696,443,569
327624,692,373,460
327628,403,483,428
327631,272,605,551
327635,465,553,607
327640,734,441,520
327644,658,416,416
327648,355,509,452
327652,290,606,556
327656,555,587,561
327660,755,473,471
327664,592,478,408
327668,310,565,467
327672,326,596,562
327676,609,493,601
327681,731,371,530
327685,524,423,439
327688,289,579,477
327692,376,610,582
327696,657,497,551
327700,700,455,411
327704,435,536,419
327708,263,569,549
327712,451,535,592
327716,732,430,554
327720,681,390,441
327725,385,489,444
327729,278,574,537
327733,509,534,580
327737,750,409,505
327741,629,432,423
327744,337,556,455
327748,283,606,569
327752,543,521,585
327756,742,422,467
327760,579,461,416
327764,320,591,480
327769,336,641,579
327773,607,559,553
327777,705,460,447
327781,491,456,428
327785,290,537,545
327789,415,538,628
327793,695,426,552
327797,729,381,482
327800,433,496,418
327804,247,605,511
327809,442,547,605
327813,718,440,539
327817,671,464,413
327821,369,556,449
327825,257,637,557
327829,496,561,611
327833,732,406,527
327837,623,406,438
327841,341,543,469
327845,322,587,565
327849,596,498,584
327854,750,407,487
327857,535,479,389
327861,302,585,470
327865,377,569,599
327869,647,448,617
327873,700,387,484
327877,437,495,412
327881,274,625,463
327885,427,585,582
327889,710,458,554
327894,675,433,442
327898,384,570,439
327902,273,645,530
327906,476,532,602
327910,719,424,508
327913,643,437,426
327917,358,534,446
327921,298,582,575
327925,569,492,618
327929,755,394,516
327933,586,442,408
327938,318,596,465
327942,326,609,585
327946,598,497,593
327950,725,423,477
327954,502,480,410
327958,283,609,510
327962,393,601,595
327966,678,509,549
327969,722,455,427
327973,456,477,425
327977,265,548,508
327982,438,523,582
327986,707,431,543
327990,670,419,441
327994,387,521,438
327998,271,602,547
328002,469,557,584
328006,706,467,528
328010,615,447,447
328014,351,537,470
328018,328,598,576
328023,594,543,589
328026,757,437,483
328030,557,436,413
328034,294,550,493
328038,334,573,596
328042,639,465,573
328046,738,409,452
328050,499,503,395
328054,272,608,507
328058,407,559,606
328062,690,432,563
328067,697,420,413
328071,417,561,403
328075,250,633,526
328079,454,524,595
328082,714,408,541
328085,651,410,445
328089,379,531,435
328093,296,627,521
328097,540,577,581
328101,738,441,534
328105,577,458,436
328110,297,579,488
328114,313,587,611
328118,606,494,583
328122,749,408,470
328126,525,445,428
328130,282,570,498
328134,368,588,556
328138,660,485,513
328141,727,423,456
328145,466,497,457
328150,277,611,536
328154,435,561,602
328158,706,437,533
328162,673,410,444
328166,391,509,433
328170,271,611,536
328174,485,553,597
328178,740,446,510
328182,643,437,417
328186,355,538,464
328190,293,592,577
328195,559,503,601
328198,749,422,483
328202,568,493,405
328206,305,596,465
328210,333,619,577
328214,622,508,582
328218,753,419,469
328222,511,486,416
328226,276,588,518
328230,382,588,578
328235,670,475,549
328239,715,400,466
328243,450,474,434
328247,264,607,502
328251,435,565,586
328254,706,427,558
328258,660,404,474
328262,388,531,439
328266,275,612,538
328270,505,559,573
328274,712,469,498
328279,607,452,409
328283,346,552,473
328287,312,588,599
328291,591,485,609
328295,756,392,478
328299,567,444,415
328303,289,572,483
328307,343,601,585
328310,647,497,588
328314,735,413,499
328318,487,491,418
328323,270,612,484
328327,407,568,623
328331,697,437,598
328335,699,402,447
328339,418,515,426
328343,267,604,541
328347,465,550,575
328351,708,442,483
328355,653,459,395
328359,368,558,428
328364,283,608,544
328367,553,531,629
328371,757,417,522
328375,590,442,431
328379,304,554,462
328383,329,586,580
328387,617,515,571
328391,763,433,485
328395,524,466,425
328399,254,575,485
328403,350,584,600
328408,662,461,573
328412,725,395,464
328416,459,490,422
328420,257,614,503
328423,407,586,554
328427,703,456,519
328431,698,426,453
328435,402,526,436
328439,265,616,551
328443,493,536,599
328448,739,416,507
328452,622,422,424
328456,340,555,454
328460,294,632,559
328464,574,538,582
328468,758,426,492
328472,582,449,418
328476,299,577,455
328479,337,597,595
328483,628,475,601
328487,741,403,462
328492,496,493,421
328496,285,623,506
328500,393,602,574
328504,665,447,561
328508,703,393,448
328512,416,492,429
328516,263,610,537
328520,459,578,605
328524,735,441,531
328528,687,403,420
328532,392,504,426
328536,283,594,575
328540,522,531,596
328544,749,459,459
328548,617,466,405
328552,323,551,470
328556,317,587,577
328560,582,502,579
328564,728,415,482
328568,548,467,423
328572,299,568,497
328577,343,580,599
328581,635,483,598
328585,727,431,482
328589,483,507,408
328592,279,612,507
328596,425,576,615
328600,712,442,561
328604,709,399,442
328608,414,513,414
328612,253,608,523
328616,476,554,579
328621,745,446,518
328625,650,441,427
328629,359,552,443
328633,290,610,563
328637,543,519,597
328641,733,394,511
328645,574,416,425
328648,289,556,454
328652,339,597,568
328656,622,503,545
328660,736,425,443
328665,515,467,400
328669,299,597,511
328673,406,608,602
328677,673,492,583
328681,704,419,469
328685,438,483,440
328689,276,581,529
328693,459,573,569
328697,716,458,504
328701,660,417,388
328705,387,526,435
328708,285,586,576
328712,513,521,625
328716,729,422,516
328720,588,432,430
328724,283,525,469
328728,300,578,601
328732,604,485,628
328736,769,402,531
328740,568,461,420
328744,302,601,479
328749,338,618,573
328753,634,481,588
328757,754,410,471
328761,509,488,423
328764,280,585,511
328768,405,578,603
328772,676,457,559
328776,679,403,451
328780,409,513,426
328784,269,619,518
328788,473,564,586
328793,737,437,528
328797,662,434,426
328801,359,540,463
328805,270,597,563
328809,545,522,584
328813,761,422,495
328817,608,442,418
328820,324,560,474
328824,318,600,563
328828,599,493,576
328833,749,406,463
328837,530,470,409
328841,281,585,505
328845,360,579,597
328849,637,456,566
328853,721,399,467
328857,461,514,409
328861,288,640,514
328865,438,587,615
328869,691,450,538
328873,668,411,442
328877,399,524,437
328881,268,611,554
328885,490,549,622
328889,737,424,533
328893,641,408,422
328897,352,546,440
328901,307,607,566
328905,573,501,575
328909,763,402,487
328913,583,447,423
328918,302,573,474
328922,323,607,565
328926,610,497,552
328930,734,411,448
328933,504,486,414
328937,277,609,487
328941,391,590,590
328945,678,478,572
328949,716,446,426
328953,449,531,435
328957,278,575,566
328962,450,519,640
328966,714,422,548
328970,659,407,411
328974,378,504,394
328978,282,590,533
328982,521,535,599
328986,742,431,508
328989,617,453,422
328993,334,555,450
328997,308,600,545
329001,566,507,585
329006,729,413,528
329010,535,482,441
329014,285,585,483
329018,361,577,594
329022,657,480,600
329026,740,415,482
329030,491,493,430
329034,277,596,488
329038,417,575,616
329042,681,459,570
329046,690,419,471
329050,419,507,451
329054,281,589,553
329058,484,527,618
329062,713,411,529
329066,625,424,423
329070,342,567,438
329074,295,656,530
329078,556,554,594
329082,741,414,501
329086,606,444,407
329091,324,585,427
329095,326,605,579
329099,616,485,609
329102,761,400,484
329106,536,470,413
329110,292,582,501
329114,372,583,613
329118,647,458,585
329122,693,387,472
329126,457,488,436
329131,272,604,518
329135,427,578,567
329139,708,452,524
329143,671,414,431
329147,392,529,425
329151,290,630,521
329155,520,574,594
329158,741,440,499
329162,632,427,430
329166,330,544,458
329170,303,600,586
329175,579,512,591
329179,760,400,496
329183,580,459,397
329187,314,618,445
329191,343,609,602
329195,626,465,595
329199,733,388,469
329203,499,470,428
329207,266,595,489
329211,394,574,591
329214,681,439,564
329219,685,388,467
329223,410,518,427
329227,273,640,517
329231,455,575,594
329235,711,441,536
329239,662,428,420
329243,384,538,428
329247,304,616,535
329251,546,543,599
329255,757,404,546
329260,613,411,415
329264,336,545,419
329268,314,616,543
329271,561,510,593
329275,739,399,512
329279,551,458,424
329283,300,580,487
329287,375,578,602
329291,654,477,557
329295,719,394,466
329299,455,465,429
329304,247,591,496
329308,408,577,608
329312,696,450,555
329316,707,409,418
329320,412,525,443
329324,265,608,566
329327,479,543,616
329331,713,427,505
329335,642,417,409
329339,375,538,425
329344,320,626,549
329348,568,536,607
329352,744,405,500
329356,570,454,427
329360,279,583,471
329364,317,603,574
329368,634,480,582
329372,744,391,459
329376,520,464,417
329380,283,612,507
329383,378,610,607
329387,661,475,561
329391,706,402,464
329395,457,485,425
329399,272,589,520
329403,440,560,589
329407,711,453,528
329411,670,427,432
329415,372,529,439
329419,265,616,533
329423,522,542,599
329427,754,396,537
329432,638,404,453
329436,343,533,467
329440,305,614,570
329443,556,538,576
329447,727,421,470
329451,553,445,423
329455,300,572,484
329459,364,606,585
329463,650,487,580
329467,738,393,467
329472,490,472,409
329476,250,611,486
329480,377,614,593
329484,693,473,562
329488,726,403,441
329492,446,518,443
329496,274,615,536
329499,459,554,585
329503,717,424,518
329507,666,415,410
329511,364,531,430
329516,275,596,552
329520,534,511,599
329524,750,397,507
329528,595,426,419
329532,307,564,460
329536,323,611,578
329540,606,509,601
329544,743,403,492
329548,543,481,417
329552,294,616,488
329555,366,583,597
329560,641,437,579
329564,711,393,443
329568,469,511,408
329572,284,605,537
329576,426,558,595
329580,687,421,563
329584,691,396,450
329588,413,520,428
329592,268,626,538
329596,485,553,606
329601,742,439,500
329605,640,457,391
329608,348,566,454
329611,301,598,565
329615,562,490,592
329619,751,411,488
329623,575,492,401
329627,296,578,467
329631,325,578,558
329635,611,464,575
329639,747,376,504
329644,534,460,444
329648,303,621,503
329652,398,622,560
329656,682,462,559
329660,702,378,469
329664,436,479,470
329667,269,612,543
329671,439,567,600
329675,693,421,524
329679,646,423,409
329683,352,552,439
329688,275,642,542
329692,530,566,575
329696,762,409,520
329700,616,396,435
329704,329,527,470
329708,324,593,556
329712,599,507,598
329716,743,393,499
329720,560,446,417
329723,302,625,456
329728,361,644,569
329732,647,474,581
329736,711,372,468
329740,449,456,420
329744,256,585,509
329748,411,581,581
329752,702,462,551
329756,703,404,460
329760,421,522,431
329764,280,647,516
329768,479,575,578
329773,735,425,520
329777,645,406,435
329780,340,526,455
329784,280,611,526
329788,540,555,547
329792,742,429,492
329796,582,419,426
329800,305,538,477
329804,307,583,571
329808,604,484,571
329812,761,392,475
329817,537,463,413
329821,289,623,471
329825,374,613,605
329829,661,462,580
329833,731,431,429
329836,472,577,367
329840,265,640,544
329844,435,535,642
329848,718,385,576
329852,681,377,442
329857,377,553,371
329861,257,649,533
329865,477,525,639
329869,737,377,558
329873,627,391,450
329877,336,556,447
329881,298,636,568
329885,547,523,609
329889,734,396,482
329892,561,432,395
329896,303,567,438
329901,361,622,540
329905,656,506,589
329909,763,394,497
329913,511,460,437
329917,279,589,512
329921,407,583,592
329925,690,460,544
329929,714,425,414
329933,437,545,400
329937,272,635,518
329942,458,562,617
329946,715,437,543
329949,666,431,448
329953,374,528,455
329957,274,598,550
329961,511,524,582
329965,735,427,481
329969,602,430,423
329973,318,547,473
329977,313,593,567
329981,593,490,581
329986,761,394,481
329990,556,468,400
329994,295,618,464
329998,361,610,586
330002,653,477,553
330005,730,413,435
330009,477,501,418
330013,267,603,511
330017,416,583,567
330021,706,500,515
330025,694,463,458
330030,408,529,467
330034,270,583,562
330038,487,513,623
330042,737,393,548
330046,642,409,438
330050,343,542,445
330054,282,601,551
330058,545,508,582
330061,743,404,487
330065,577,445,403
330070,296,578,465
330074,319,607,583
330078,618,487,583
330082,747,395,478
330086,509,469,417
330090,268,601,485
330094,377,600,580
330098,676,468,557
330102,721,406,448
330106,442,505,419
330110,258,619,510
330115,445,593,572
330118,725,475,509
330121,681,426,427
330125,375,501,452
330129,264,583,564
330133,514,545,589
330137,754,452,489
330141,626,440,425
330145,326,529,460
330149,296,586,561
330153,584,526,563
330158,758,418,482
330162,558,429,424
330166,281,543,487
330170,336,573,584
330173,648,474,581
330176,746,397,477
330180,485,468,425
330184,258,590,506
330188,404,588,594
330192,700,473,557
330196,707,418,445
330201,414,509,425
330205,253,609,518
330209,470,570,584
330213,746,453,531
330217,662,431,433
330221,349,533,445
330225,269,608,551
330228,545,542,594
330232,765,431,502
330236,598,438,412
330241,300,542,464
330245,304,589,574
330249,606,505,584
330253,761,416,480
330257,530,463,416
330261,267,585,485
330265,365,597,584
330269,679,480,565
330273,740,405,456
330277,452,478,415
330281,244,586,508
330285,424,568,590
330289,727,460,542
330293,699,422,435
330297,385,513,433
330301,253,602,537
330305,496,552,596
330309,755,437,521
330313,642,426,424
330317,332,530,447
330321,282,597,558
330326,573,527,590
330330,768,427,496
330334,572,452,421
330338,287,564,470
330341,331,594,570
330344,635,498,571
330348,746,414,466
330352,497,472,415
330356,254,592,497
330360,382,602,588
330364,695,494,550
330369,721,429,436
330373,439,497,410
330377,271,596,513
330381,461,563,585
330385,720,447,528
330389,663,414,426
330393,372,503,434
330397,285,580,541
330400,526,528,588
330404,740,426,505
330408,606,429,415
330413,324,531,454
330417,314,585,565
330421,593,514,583
330425,746,426,479
330429,542,456,405
330433,290,555,470
330437,360,577,573
330441,649,487,561
330445,728,420,455
330449,468,480,412
330454,270,579,500
330457,420,571,586
330461,699,470,541
330465,694,426,432
330469,411,510,418
330473,272,597,522
330477,481,562,591
330481,727,458,526
330485,640,439,428
330489,355,531,447
330493,292,598,560
330498,553,536,599
330502,751,435,509
330506,585,448,423
330510,307,550,460
330513,329,591,567
330517,615,512,583
330521,744,426,478
330525,517,465,419
330529,274,567,494
330533,376,576,590
330537,668,480,564
330542,716,421,455
330546,447,488,426
330550,264,583,518
330554,440,563,598
330558,715,464,543
330562,676,431,438
330566,377,513,441
330569,265,589,541
330573,505,544,595
330577,744,444,522
330582,621,442,432
330586,338,538,465
330590,304,593,569
330594,577,522,595
330598,743,430,498
330602,549,454,424
330606,293,559,483
330610,350,587,585
330614,638,502,582
330618,735,430,478
330622,489,480,430
330626,273,577,511
330630,400,574,596
330634,678,473,560
330638,696,423,453
330642,423,496,431
330646,270,587,532
330650,470,562,607
330654,733,462,546
330658,661,437,442
330662,363,523,448
330667,278,593,556
330671,529,540,605
330675,743,446,520
330679,599,453,432
330682,321,554,474
330686,322,600,581
330690,600,524,598
330694,744,436,494
330698,529,468,426
330702,279,573,500
330706,358,593,593
330711,655,500,576
330715,728,431,468
330719,473,491,435
330723,279,588,520
330727,431,573,599
330731,702,470,551
330735,681,432,444
330738,398,513,435
330742,273,597,544
330746,492,557,605
330750,732,455,530
330755,633,444,428
330759,344,535,448
330763,294,600,557
330767,560,534,591
330771,746,438,501
330775,571,456,420
330779,306,555,473
330783,332,589,581
330787,621,507,585
330791,733,427,482
330795,503,472,430
330799,276,574,505
330803,385,578,595
330807,674,483,568
330811,709,427,464
330815,437,496,441
330819,265,590,533
330823,453,563,598
330827,722,459,539
330831,674,429,433
330835,378,517,437
330840,279,592,544
330844,515,543,597
330848,738,446,519
330851,610,448,425
330855,322,547,457
330859,307,601,566
330863,587,531,590
330867,749,441,495
330871,550,467,419
330875,284,567,482
330880,348,590,586
330884,650,501,578
330888,738,430,472
330892,479,483,422
330896,260,581,510
330900,410,578,597
330904,705,480,557
330907,709,434,447
330911,405,507,433
330915,250,591,536
330919,474,557,603
330924,744,458,542
330928,658,440,435
330932,348,529,447
330936,267,599,565
330940,545,542,600
330944,763,443,509
330948,589,452,425
330952,293,553,472
330956,310,595,581
330960,614,517,590
330963,754,437,486
330968,520,479,422
330972,262,581,490
330976,359,592,592
330980,680,496,573
330984,738,432,465
330988,453,496,433
330992,251,590,524
330996,429,571,605
331000,719,468,555
331004,691,431,443
331009,387,512,441
331013,266,592,546
331017,505,547,603
331020,747,444,523
331024,632,438,428
331028,339,538,457
331032,294,596,564
331036,570,532,592
331040,753,439,499
331044,568,459,422
331048,296,563,478
331053,340,592,582
331057,636,507,580
331061,742,431,473
331065,498,481,423
331069,264,585,507
331073,387,589,599
331076,691,491,566
331080,721,435,458
331084,427,506,432
331088,253,596,531
331092,457,566,605
331097,738,465,546
331101,677,443,446
331105,367,529,453
331109,269,602,556
331113,531,549,597
331117,761,448,510
331121,611,448,420
331125,312,548,468
331129,302,598,578
331132,601,522,589
331137,762,432,489
331141,544,464,420
331145,274,566,485
331149,357,586,586
331153,669,497,570
331157,746,428,461
331161,469,486,423
331165,252,583,515
331169,413,576,600
331173,714,477,551
331177,707,433,446
331182,406,509,439
331186,255,592,545
331189,481,556,602
331193,746,454,529
331197,650,438,431
331201,338,532,451
331205,275,593,557
331209,559,529,592
331213,763,433,501
331217,585,451,421
331222,292,552,474
331226,317,588,582
331230,627,507,587
331234,754,429,481
331238,512,470,423
331242,266,569,497
331245,379,577,591
331249,685,485,569
331253,728,429,464
331257,440,494,428
331261,255,586,521
331266,444,565,599
331270,733,465,545
331274,690,435,439
331278,380,519,442
331282,265,592,550
331286,515,543,603
331290,754,444,522
331294,620,441,430
331298,315,535,462
331301,292,589,568
331305,585,518,590
331310,755,427,492
331314,549,452,417
331318,279,552,474
331322,338,580,580
331326,647,493,578
331330,746,423,469
331334,486,479,418
331338,257,577,496
331342,401,571,587
331346,707,472,550
331351,716,425,444
331355,416,502,430
331358,256,590,534
331362,473,558,602
331366,747,461,536
331370,663,441,435
331374,353,527,449
331378,271,594,559
331382,543,538,602
331386,762,439,509
331390,599,448,423
331395,302,546,468
331399,312,587,576
331403,615,510,592
331407,756,431,492
331411,525,468,423
331414,269,565,492
331418,366,577,588
331422,673,485,567
331426,739,424,457
331430,459,487,421
331435,249,585,515
331439,423,573,600
331443,719,478,543
331447,691,437,433
331451,392,515,433
331455,266,596,539
331459,502,551,598
331463,753,452,524
331467,636,444,429
331470,330,535,456
331474,285,592,565
331479,566,527,597
331483,760,436,501
331487,572,459,425
331491,290,563,482
331495,332,594,580
331499,637,507,572
331503,756,427,467
331507,501,473,414
331511,262,575,494
331515,388,577,589
331520,693,482,558
331524,726,430,451
331527,432,497,426
331531,256,584,523
331535,459,555,594
331539,742,455,534
331543,674,427,433
331547,366,514,443
331551,268,588,552
331555,524,540,607
331559,754,444,528
331564,611,447,427
331568,312,542,457
331572,300,590,567
331576,596,516,589
331580,759,432,493
331583,544,462,425
331587,270,562,487
331591,345,581,582
331595,658,492,572
331599,742,421,464
331603,476,476,422
331608,256,576,511
331612,410,565,597
331616,706,467,551
331620,700,423,444
331624,401,502,436
331628,253,588,539
331632,480,551,599
331636,748,449,527
331639,652,433,423
331643,343,525,446
331648,278,592,559
331652,556,533,595
331656,759,436,503
331660,589,447,420
331664,296,547,471
331668,316,584,575
331672,624,501,580
331676,757,419,477
331680,517,459,421
331684,265,560,497
331688,371,570,592
331693,680,478,567
331696,730,421,457
331700,449,488,423
331704,256,581,520
331708,443,559,594
331712,729,456,539
331716,688,423,436
331720,382,507,436
331724,264,585,540
331728,507,541,599
331732,750,443,518
331737,623,439,426
331741,315,534,457
331745,283,591,567
331749,582,521,591
331752,764,430,494
331756,561,457,420
331760,281,560,482
331764,341,587,588
331768,647,499,581
331772,747,422,468
331777,486,472,417
331781,254,571,501
331785,396,569,587
331789,700,471,549
331793,718,421,442
331797,418,493,424
331801,253,581,524
331805,464,549,594
331808,739,448,533
331812,664,427,432
331816,351,517,444
331821,269,588,553
331825,542,534,591
331829,760,439,503
331833,598,450,416
331837,299,551,461
331841,308,593,571
331845,610,516,585
331849,762,429,484
331853,530,461,426
331857,270,563,488
331862,364,578,583
331865,675,488,564
331869,741,422,458
331873,465,481,423
331877,256,576,513
331881,422,560,595
331885,719,459,550
331889,699,422,439
331893,393,504,433
331897,260,589,540
331901,494,548,595
331906,746,445,515
331910,640,433,418
331914,334,528,444
331918,281,589,556
331921,562,526,589
331925,759,432,498
331929,576,449,419
331933,291,550,473
331937,329,582,583
331941,633,500,582
331945,757,421,476
331950,504,466,419
331954,263,566,496
331958,384,570,591
331962,690,477,563
331966,722,423,453
331970,431,487,426
331974,253,574,526
331977,454,555,603
331981,735,462,535
331985,676,432,431
331990,371,514,435
331994,272,587,542
331998,526,539,590
332002,760,440,508
332006,621,437,422
332010,317,535,461
332014,299,589,570
332018,593,518,586
332022,759,433,483
332026,545,463,415
332030,276,560,481
332034,348,581,585
332038,655,493,574
332042,739,425,464
332046,475,479,419
332050,259,576,511
332054,412,568,599
332058,709,471,555
332062,706,426,443
332066,406,498,429
332070,261,581,531
332075,489,543,598
332079,747,445,534
332083,654,430,425
332087,348,523,443
332090,279,588,554
332094,551,528,591
332098,758,435,502
332102,592,445,420
332106,300,541,466
332110,314,582,572
332114,618,505,578
332119,755,426,476
332123,523,467,420
332127,271,566,494
332131,376,577,593
332135,680,482,572
332139,733,422,464
332143,451,486,436
332146,255,579,524
332150,437,559,601
332154,721,459,549
332158,685,427,437
332163,384,508,435
332167,268,584,540
332171,510,541,596
332175,751,443,519
332179,627,439,427
332183,327,534,461
332187,289,588,564
332191,577,520,589
332195,759,428,492
332199,565,449,418
332203,287,546,475
332207,336,576,582
332211,640,498,579
332215,744,429,475
332219,488,480,431
332223,257,575,502
332227,396,572,592
332231,694,471,556
332235,713,417,447
332239,416,488,433
332243,249,579,532
332248,459,552,600
332252,735,453,535
332256,666,431,436
332259,361,518,446
332263,272,585,553
332267,536,530,595
332271,752,435,508
332275,600,441,422
332279,305,541,468
332283,305,589,574
332288,602,512,581
332292,758,428,478
332296,533,465,415
332300,270,568,490
332304,355,586,588
332308,665,495,565
332311,738,428,457
332314,463,484,422
332318,260,577,513
332322,417,564,596
332326,712,468,550
332331,697,430,447
332335,400,506,437
332339,261,584,540
332343,494,546,599
332347,749,448,519
332351,641,436,423
332355,333,527,451
332359,284,585,561
332363,566,523,594
332366,760,432,496
332369,579,448,415
332374,297,546,472
332378,329,578,572
332382,633,499,573
332386,752,423,468
332390,507,462,412
332394,265,559,491
332398,382,568,584
332402,687,478,556
332406,718,430,450
332410,431,493,428
332414,254,578,524
332419,451,555,594
332422,730,459,535
332425,678,430,432
332429,374,509,439
332433,267,579,548
332437,514,535,600
332441,751,443,524
332445,614,443,431
332449,315,534,464
332453,300,579,568
332457,589,511,591
332462,754,427,489
332466,549,450,415
332470,281,547,481
332474,347,573,582
332477,651,492,571
332480,742,428,467
332484,479,481,418
332488,258,573,503
332492,406,567,593
332496,703,472,549
332500,711,428,442
332505,412,501,431
332509,257,585,533
332513,477,552,598
332517,743,454,529
332521,655,438,430
332525,351,525,451
332529,277,588,565
332532,546,535,597
332535,753,441,506
332539,589,450,422
332544,297,542,467
332548,314,577,573
332552,611,502,577
332556,755,426,474
332560,522,466,416
332564,271,563,490
332568,373,578,587
332572,676,491,562
332576,728,432,455
332580,453,489,423
332584,258,578,515
332588,433,562,591
332592,725,466,538
332596,691,435,435
332600,385,515,435
332604,261,593,541
332608,503,551,596
332612,748,452,522
332616,632,445,430
332620,328,534,462
332624,293,590,573
332628,577,524,595
332633,764,435,495
332637,567,458,424
332641,286,556,479
332644,332,581,577
332648,641,498,570
332652,749,425,464
332656,495,472,414
332660,258,567,498
332664,389,567,587
332668,695,473,550
332673,717,425,441
332677,422,497,424
332681,257,582,525
332685,460,556,591
332689,733,458,528
332693,662,436,432
332697,358,521,448
332700,274,589,550
332704,542,535,593
332708,762,440,510
332712,606,447,420
332717,312,540,464
332721,308,584,574
332725,603,511,588
332729,756,429,483
332733,534,457,419
332737,277,555,488
332741,360,572,590
332745,669,486,570
332749,742,424,462
332753,465,480,423
332756,254,573,512
332761,419,563,595
332765,710,471,549
332769,699,433,441
332773,396,507,430
332777,255,586,532
332781,489,547,592
332785,749,450,519
332789,647,440,424
332793,339,529,447
332797,282,587,560
332802,559,529,593
332806,759,442,502
332810,578,456,422
332813,294,551,475
332817,324,586,582
332821,626,509,582
332825,753,434,476
332829,512,474,421
332833,265,573,497
332837,382,575,589
332841,685,483,559
332846,723,429,449
332850,433,495,426
332854,256,584,519
332858,445,561,592
332862,723,463,534
332866,675,432,432
332869,376,512,433
332873,265,584,543
332877,514,541,594
332881,755,447,512
332886,622,446,420
332890,321,538,454
332894,297,588,564
332898,589,520,588
332902,759,434,491
332906,557,461,424
332910,285,562,490
332914,346,588,594
332918,654,503,577
332922,747,432,465
332925,485,484,423
332930,259,581,508
332934,404,579,597
332938,703,485,556
332942,710,436,444
332946,413,506,430
332950,258,586,532
332954,477,555,597
332958,742,460,533
332962,661,440,426
332966,358,525,443
332971,277,589,550
332975,544,533,590
332979,757,441,503
332982,594,451,420
332985,306,548,469
332989,315,587,573
332993,610,510,584
332997,751,428,481
333001,526,465,418
333005,270,562,489
333009,365,574,586
333014,671,485,568
333018,732,424,461
333022,454,484,428
333026,255,574,515
333030,429,560,593
333034,718,464,541
333038,691,428,435
333041,392,504,433
333045,263,582,543
333049,503,540,595
333053,745,442,518
333058,632,435,427
333062,331,527,452
333066,288,584,561
333070,571,523,586
333074,758,435,488
333078,569,454,412
333082,289,554,472
333086,333,586,579
333090,637,506,579
333094,751,434,474
333097,500,482,426
333102,264,577,503
333106,388,574,592
333110,687,476,561
333114,721,423,454
333118,434,492,431
333122,258,582,527
333126,454,555,596
333130,732,457,534
333134,670,433,432
333138,366,516,440
333143,273,585,545
333147,530,532,590
333151,754,436,507
333154,606,440,424
333158,317,538,457
333162,304,584,565
333166,597,511,584
333170,758,429,487
333174,540,461,420
333178,276,561,486
333182,354,581,586
333187,658,494,570
333191,744,428,465
333195,476,481,426
333199,261,575,515
333203,415,566,600
333207,709,472,556
333210,706,430,448
333214,409,505,438
333218,263,587,538
333222,482,551,598
333227,744,453,527
333231,648,438,427
333235,342,525,447
333239,285,586,558
333243,555,530,591
333247,761,440,499
333251,585,454,418
333255,296,551,471
333259,318,587,576
333263,615,511,578
333266,749,431,476
333271,515,470,418
333275,267,565,492
333279,375,572,588
333283,680,482,564
333287,729,425,456
333291,448,490,435
333295,260,584,526
333299,441,562,598
333303,724,463,543
333307,683,430,441
333312,381,510,445
333316,263,588,549
333320,510,545,598
333323,752,446,517
333327,629,441,424
333331,328,533,456
333335,292,584,565
333339,579,517,590
333343,757,431,494
333347,561,455,422
333351,284,552,479
333356,341,579,580
333360,643,496,572
333364,745,424,466
333368,490,475,419
333372,262,573,511
333376,398,571,593
333379,698,475,552
333383,714,424,440
333387,421,492,422
333391,255,577,526
333395,467,550,598
333400,736,454,537
333404,664,434,432
333408,357,521,445
333412,272,589,552
333416,532,533,593
333420,751,438,506
333424,601,447,420
333428,308,543,465
333432,307,586,571
333435,602,515,579
333440,754,431,475
333444,536,463,413
333448,276,562,485
333452,357,580,584
333456,665,492,565
333460,736,429,460
333464,469,487,427
333468,262,580,516
333472,423,567,596
333476,717,469,548
333480,701,430,442
333485,397,506,432
333489,259,586,539
333492,492,549,597
333496,746,453,525
333500,644,443,430
333504,341,533,451
333508,289,590,556
333512,565,526,586
333516,760,436,496
333520,575,453,414
333524,291,548,467
333529,325,580,573
333533,627,503,575
333537,750,426,470
333541,507,469,417
333545,266,567,496
333548,380,572,589
333551,684,480,559
333555,719,425,449
333559,435,492,424
333563,259,583,523
333568,449,563,600
333572,728,468,541
333576,679,439,431
333580,377,516,435
333584,267,584,544
333588,514,537,598
333592,746,443,517
333596,618,444,426
333600,319,536,461
333603,298,586,568
333606,585,515,589
333611,755,431,493
333615,550,457,417
333619,282,551,479
333623,347,574,581
333627,655,489,570
333631,745,422,462
333635,481,475,418
333639,259,569,508
333643,403,563,593
333647,696,468,553
333651,703,425,440
333656,413,496,428
333660,260,579,528
333663,474,547,597
333667,743,454,536
333671,657,436,430
333675,355,521,445
333679,277,585,555
333683,543,530,593
333687,758,441,505
333691,597,452,422
333696,304,548,466
333700,316,589,574
333704,615,507,583
333708,756,424,480
333712,528,465,421
333716,271,569,492
333719,366,580,585
333723,672,486,563
333727,735,424,457
333731,455,483,422
333735,266,578,516
333740,435,563,596
333744,721,465,543
333748,689,432,438
333752,385,518,439
333756,261,598,543
333760,499,552,599
333764,750,453,521
333768,636,444,424
333772,332,535,454
333775,288,593,564
333779,570,524,587
333784,757,429,493
333788,569,453,419
333792,292,555,478
333796,333,585,581
333800,636,503,578
333804,750,427,468
333808,498,476,420
333812,263,575,502
333816,391,573,594
333820,691,478,558
333825,717,427,449
333829,432,495,427
333832,261,583,525
333836,460,553,599
333840,732,452,541
333844,669,433,438
333848,367,524,440
333852,270,593,549
333856,525,537,592
333860,751,439,506
333864,605,446,418
333869,314,543,459
333873,306,590,570
333877,599,516,586
333881,759,430,483
333885,542,461,416
333888,275,560,487
333892,352,579,589
333896,661,492,576
333900,744,424,461
333904,470,481,422
333908,260,578,510
333913,414,566,590
333917,711,465,544
333921,703,421,435
333925,405,499,425
333929,262,583,528
333933,484,545,592
333937,745,447,519
333941,652,435,424
333944,342,531,446
333948,275,593,555
333953,552,528,589
333957,758,434,495
333961,586,447,419
333965,300,545,474
333969,321,586,581
333973,621,507,584
333977,753,426,479
333981,517,467,420
333985,269,567,497
333989,377,575,593
333993,681,482,572
333998,725,425,460
334001,447,488,427
334005,260,578,524
334009,441,557,597
334013,723,458,540
334017,680,430,436
334021,381,513,436
334025,269,586,540
334029,514,540,594
334033,756,441,511
334038,628,439,421
334042,329,536,455
334046,298,590,568
334050,587,522,594
334054,763,431,490
334057,562,454,418
334061,291,551,481
334065,348,576,586
334069,651,492,576
334073,747,421,468
334077,489,473,422
334082,263,571,507
334086,405,568,595
334090,700,469,550
334094,711,421,443
334098,418,496,430
334102,258,582,529
334106,466,549,595
334110,737,450,530
334113,661,431,427
334117,357,520,441
334121,274,587,548
334126,536,532,589
334130,759,437,501
334134,605,449,419
334138,309,545,462
334142,308,587,570
334146,607,508,581
334150,757,423,479
334154,531,458,419
334158,271,559,492
334162,359,575,592
334167,669,482,568
334170,737,418,459
334174,462,480,424
334178,260,574,515
334182,426,559,594
334186,716,462,543
334190,692,425,435
334194,390,505,431
334198,260,585,538
334202,494,545,595
334206,748,447,520
334211,637,440,425
334215,337,531,451
334219,285,589,561
334223,563,527,595
334226,754,435,494
334230,571,453,413
334234,292,555,467
334238,331,589,575
334242,629,507,580
334246,748,433,475
334251,499,478,420
334255,262,576,500
334259,385,576,596
334263,685,481,565
334267,717,427,454
334271,431,497,431
334275,248,585,530
334279,447,560,606
334282,727,460,541
334286,673,432,436
334290,367,518,443
334295,267,589,549
334299,523,538,596
334303,756,441,514
334307,613,444,430
334311,319,542,462
334315,299,591,568
334319,590,520,584
334323,762,433,485
334327,550,464,419
334331,280,566,487
334336,352,584,585
334339,657,497,574
334343,742,430,467
334347,476,484,426
334351,260,579,518
334355,409,570,600
334359,707,471,556
334363,708,427,446
334367,407,503,435
334371,259,586,536
334375,480,549,596
334380,741,453,525
334384,651,439,427
334388,345,527,447
334392,273,586,556
334395,545,525,591
334399,756,432,499
334403,585,448,417
334407,298,549,465
334411,316,585,570
334415,623,505,578
334419,759,427,476
334424,520,471,418
334428,269,570,489
334432,367,577,584
334436,672,485,557
334440,729,428,451
334444,449,492,423
334448,257,584,516
334451,438,561,593
334455,723,461,538
334459,689,430,436
334464,385,513,439
334468,266,588,547
334472,509,543,601
334476,753,445,519
334480,634,442,426
334484,324,536,449
334488,288,587,559
334492,574,520,587
334496,759,431,491
334500,564,455,414
334504,282,556,474
334508,335,583,580
334511,642,499,574
334515,749,428,470
334519,488,481,420
334523,259,577,502
334527,395,574,589
334531,699,478,554
334535,724,431,448
334539,425,500,430
334543,254,586,530
334547,463,557,600
334552,739,458,539
334556,668,439,436
334560,359,525,446
334563,263,590,553
334567,531,533,593
334571,764,436,506
334575,609,444,422
334579,309,543,470
334583,304,586,574
334587,608,510,585
334592,764,427,481
334596,537,464,419
334600,271,565,491
334604,357,581,588
334608,666,490,564
334612,739,425,455
334616,464,484,418
334619,255,580,509
334622,417,568,596
334626,714,469,552
334630,702,430,444
334635,400,506,435
334639,265,587,543
334643,493,550,607
334647,743,452,530
334651,644,440,431
334655,339,529,454
334659,284,587,565
334663,563,527,598
334667,758,436,501
334671,578,454,423
334675,289,555,478
334679,321,589,577
334683,627,504,572
334687,751,426,467
334691,509,469,414
334695,263,566,494
334699,383,571,589
334703,687,479,561
334707,728,426,454
334711,439,494,426
334715,258,582,525
334720,446,559,599
334724,725,463,539
334728,676,435,435
334732,368,516,440
334735,266,589,548
334739,523,544,596
334743,758,450,513
334747,621,448,425
334751,316,539,459
334755,292,588,567
334759,587,521,592
334764,764,433,487
334768,555,459,413
334772,282,557,477
334776,346,579,579
334780,655,493,568
334784,746,426,459
334788,482,482,417
334791,256,577,506
334795,400,571,597
334799,702,477,556
334803,712,430,447
334808,411,501,433
334812,256,586,536
334816,476,553,599
334820,741,455,531
334824,661,439,435
334828,356,527,450
334832,276,591,553
334836,542,534,594
334840,759,441,507
334844,597,453,421
334848,303,548,465
334852,308,587,572
334856,608,510,581
334860,754,428,482
334864,528,467,422
334868,273,563,484
334872,369,575,580
334876,674,486,558
334880,731,428,451
334884,454,488,421
334888,256,576,512
334893,431,561,591
334897,716,467,540
334901,693,435,439
334904,389,517,434
334908,263,594,540
334912,503,554,597
334916,750,457,519
334920,633,447,422
334924,334,537,450
334928,288,590,560
334932,569,527,590
334937,759,440,493
334941,569,462,419
334945,285,561,476
334949,328,588,579
334953,638,503,575
334957,751,428,469
334960,497,474,420
334964,260,569,500
334968,388,569,588
334972,690,476,554
334977,715,428,447
334981,427,498,428
334985,256,585,529
334989,455,559,600
334993,735,460,538
334997,674,436,433
335001,365,520,443
335005,267,588,552
335009,528,538,595
335013,759,445,513
335016,611,450,425
335021,309,544,465
335025,303,590,571
335029,603,518,585
335033,760,434,484
335037,545,463,417
335041,277,561,483
335045,353,580,585
335049,665,496,572
335053,742,431,462
335057,471,483,422
335062,254,576,512
335066,409,564,594
335070,710,471,548
335073,702,431,445
335077,395,506,438
335081,252,586,539
335085,484,550,603
335089,748,455,532
335093,644,443,430
335097,339,531,449
335101,279,591,560
335106,559,542,588
335110,768,458,497
335114,591,461,418
335118,299,541,471
335122,320,574,577
335126,625,510,581
335129,758,442,479
335133,519,473,423
335137,268,558,497
335141,381,571,592
335145,687,492,564
335150,727,437,456
335154,441,487,431
335158,256,566,522
335162,443,554,594
335166,727,469,541
335170,683,442,437
335174,372,512,434
335178,267,580,541
335182,516,546,594
335185,753,460,513
335190,625,454,421
335194,323,531,456
335198,297,581,566
335202,585,528,586
335206,762,454,490
335210,552,471,418
335214,277,552,483
335218,340,576,589
335222,644,507,580
335226,743,443,474
335230,488,480,425
335235,264,557,507
335239,404,557,598
335242,703,479,562
335246,712,438,446
335250,417,496,429
335254,258,571,529
335258,471,549,596
335262,737,467,528
335266,662,445,429
335270,362,518,446
335275,278,576,549
335279,544,533,590
335283,762,451,500
335287,601,455,416
335291,309,537,461
335294,315,576,569
335297,614,515,580
335301,762,442,480
335305,530,472,424
335309,272,557,494
335313,363,574,591
335318,668,501,570
335322,733,444,460
335326,460,488,428
335330,257,569,517
335334,427,562,595
335338,717,480,548
335342,689,443,439
335346,389,502,432
335349,263,569,533
335352,500,542,591
335356,751,461,516
335361,648,452,426
335365,337,524,449
335369,285,576,555
335373,570,528,583
335377,758,450,490
335381,573,460,414
335385,291,543,472
335389,329,577,575
335393,633,509,575
335397,753,442,471
335401,499,477,420
335406,261,560,495
335409,387,566,591
335413,688,491,557
335417,724,442,449
335421,437,491,427
335425,254,564,526
335429,450,551,601
335433,733,471,539
335437,677,442,436
335441,365,508,442
335446,267,574,549
335450,525,538,594
335454,755,457,510
335458,616,453,423
335462,317,530,461
335465,299,573,567
335469,593,517,585
335473,762,444,481
335477,547,462,412
335481,275,542,481
335485,351,568,584
335490,660,502,571
335494,746,444,463
335498,472,483,420
335502,254,562,509
335506,411,562,596
335510,709,486,550
335514,707,444,447
335518,408,501,436
335521,259,569,529
335525,479,544,593
335529,743,461,525
335534,654,444,430
335538,349,516,453
335542,280,575,566
335546,553,531,596
335550,761,450,501
335554,591,455,421
335558,295,535,468
335562,312,571,574
335566,613,509,578
335570,750,439,473
335575,520,470,417
335579,269,557,496
335583,371,570,589
335587,676,496,562
335591,727,443,454
335595,443,493,425
335599,256,573,523
335603,439,560,601
335607,725,478,545
335611,686,448,438
335616,379,511,436
335620,260,577,541
335624,497,543,598
335628,746,459,517
335631,627,448,423
335635,326,523,456
335639,292,573,562
335643,579,519,584
335647,760,443,488
335651,559,459,414
335655,285,541,473
335660,339,569,578
335664,645,504,572
335668,749,443,462
335672,492,478,420
335676,262,561,500
335680,397,564,589
335684,698,487,550
335687,714,442,443
335691,417,495,426
335695,255,570,528
335699,466,553,593
335704,741,470,529
335708,668,447,429
335712,357,517,444
335716,271,578,554
335720,533,535,598
335724,761,450,510
335728,605,452,419
335732,310,534,463
335736,314,572,571
335740,613,501,581
335744,762,426,481
335748,536,465,422
335752,274,565,494
335756,360,579,589
335760,668,491,566
335764,736,427,455
335768,459,485,419
335772,252,578,512
335776,421,564,595
335780,714,469,547
335784,697,435,439
335789,393,516,433
335793,258,592,538
335797,494,551,598
335800,751,455,525
335804,644,445,428
335808,338,535,452
335812,285,592,562
335816,563,531,592
335820,761,442,498
335824,572,460,421
335828,288,559,474
335833,329,588,579
335837,635,502,578
335841,756,428,475
335845,506,474,418
335849,260,570,496
335853,382,575,587
335856,688,482,557
335860,720,428,457
335864,430,496,433
335868,254,585,527
335873,451,559,597
335877,731,462,534
335881,677,436,433
335885,370,519,442
335889,268,589,553
335893,525,541,600
335897,759,447,517
335901,616,450,426
335905,315,543,458
335909,297,588,568
335912,590,519,588
335917,758,436,489
335921,545,464,424
335925,278,559,492
335929,348,577,587
335933,654,492,568
335937,734,426,460
335941,471,476,418
335945,257,568,510
335949,409,562,594
335953,707,468,549
335958,706,429,443
335962,410,503,431
335966,256,584,535
335969,476,549,602
335973,738,456,537
335977,648,441,433
335981,341,525,450
335985,272,585,559
335989,546,526,596
335993,751,434,507
335997,585,450,425
336002,294,548,475
336006,307,586,580
336010,614,510,583
336014,757,434,478
336018,516,471,423
336022,260,564,499
336025,368,571,588
336029,679,480,563
336033,733,425,456
336037,450,487,423
336041,253,577,516
336046,435,561,595
336050,722,465,542
336054,687,433,434
336058,385,512,435
336062,259,590,547
336066,505,546,595
336070,751,448,512
336074,628,444,422
336078,325,538,457
336081,287,592,566
336086,573,525,590
336090,763,438,494
336094,566,462,419
336098,284,560,475
336102,335,585,578
336106,644,503,576
336110,751,433,472
336114,492,482,424
336118,257,573,508
336122,394,570,596
336126,704,475,558
336131,720,428,449
336135,424,499,429
336138,251,584,528
336141,457,556,596
336145,735,458,531
336149,671,438,429
336153,363,524,443
336157,272,590,552
336161,530,538,596
336165,754,447,515
336169,603,455,427
336174,305,548,464
336178,302,589,574
336182,601,516,591
336186,758,435,486
336190,533,468,419
336194,268,563,486
336197,351,578,586
336201,661,490,568
336205,735,426,459
336209,466,482,420
336214,256,574,509
336218,415,561,594
336222,711,467,543
336226,700,431,437
336230,399,506,429
336234,257,585,532
336238,483,545,594
336242,740,448,525
336246,647,441,429
336250,341,531,452
336253,277,590,558
336258,557,526,589
336262,758,435,496
336266,580,454,418
336270,293,551,475
336274,320,584,581
336278,623,504,587
336282,752,430,479
336286,513,473,421
336290,266,570,499
336294,377,574,595
336299,683,482,564
336303,728,427,450
336307,439,492,424
336310,254,578,521
336314,442,558,598
336318,723,462,539
336322,677,432,432
336326,370,513,438
336330,259,587,546
336334,515,541,595
336338,757,443,510
336343,626,442,419
336347,321,535,458
336351,295,585,569
336355,586,518,588
336359,758,433,487
336363,553,459,417
336366,283,559,483
336370,345,583,583
336374,653,500,575
336378,747,433,465
336382,486,481,420
336387,258,574,510
336391,400,570,598
336395,698,479,558
336399,709,433,447
336403,414,500,432
336407,251,580,534
336411,468,550,596
336415,742,457,527
336419,662,440,429
336422,353,525,444
336427,274,588,552
336431,540,532,592
336435,755,439,503
336439,600,450,422
336443,307,547,466
336447,313,587,575
336451,613,512,584
336455,759,433,481
336459,530,470,425
336463,271,567,490
336467,361,577,586
336472,668,487,565
336476,734,427,458
336479,455,486,425
336483,256,577,517
336487,429,562,599
336491,719,466,550
336495,694,431,443
336499,388,510,438
336503,260,586,542
336507,498,542,593
336512,749,446,517
336516,634,443,423
336520,333,536,449
336524,286,590,561
336528,568,526,589
336532,764,437,491
336535,574,458,416
336539,290,556,474
336543,331,587,580
336547,634,508,578
336551,755,437,471
336556,504,484,421
336560,263,577,502
336564,386,577,593
336568,688,484,561
336572,716,432,455
336576,427,501,435
336580,245,586,532
336584,451,559,603
336588,739,461,540
336591,679,436,438
336595,371,520,444
336600,267,590,549
336604,522,540,595
336608,754,445,511
336612,611,447,420
336616,313,541,459
336620,302,584,567
336624,595,513,583
336628,759,430,484
336632,546,461,415
336636,279,559,482
336641,353,579,583
336645,659,493,570
336648,742,429,464
336652,475,482,424
336656,258,576,512
336660,412,568,595
336664,711,476,552
336668,707,435,442
336672,410,508,434
336676,259,588,535
336680,478,549,595
336685,744,453,528
336689,654,437,428
336693,349,524,447
336697,281,585,556
336701,552,525,592
336704,763,433,500
336708,590,448,418
336712,293,545,468
336716,314,584,575
336720,617,509,574
336724,757,430,473
336729,521,469,416
336733,266,567,489
336737,368,575,584
336741,678,486,560
336745,731,432,459
336749,450,494,424
336753,256,581,520
336757,437,558,595
336760,722,461,541
336764,685,430,438
336769,380,501,438
336773,260,574,549
336777,505,546,600
336781,752,457,517
336785,630,448,424
336789,327,537,455
336793,287,586,564
336797,577,514,585
336801,759,427,491
336805,565,457,418
336809,288,558,478
336814,338,584,580
336817,642,499,574
336821,744,428,465
336825,489,476,417
336829,256,568,501
336833,392,570,592
336837,695,487,555
336841,714,454,441
336845,424,521,432
336849,258,587,539
336854,463,551,609
336858,734,452,543
336862,663,431,441
336866,360,513,453
336870,273,580,557
336873,529,528,599
336877,752,440,514
336881,603,449,428
336885,306,544,469
336889,305,587,577
336893,600,514,589
336898,758,437,485
336902,537,472,419
336906,273,565,486
336910,356,577,584
336914,662,488,566
336918,736,429,460
336922,461,488,424
336926,257,579,513
336929,419,566,598
336933,709,472,553
336937,693,435,446
336942,395,507,436
336946,258,583,536
336950,489,543,597
336954,746,451,522
336958,645,441,426
336962,341,531,452
336966,280,586,561
336970,561,523,589
336974,763,438,496
336978,582,458,420
336983,295,555,476
336986,322,587,582
336989,630,509,582
336993,758,434,474
336997,511,476,417
337001,263,568,496
337005,379,570,590
337009,682,481,558
337013,725,431,448
337017,438,494,427
337021,255,579,519
337026,449,555,590
337030,730,460,534
337034,682,436,432
337038,373,517,436
337042,260,588,543
337045,517,539,594
337049,757,445,514
337053,623,445,423
337057,318,534,461
337061,296,584,570
337065,588,517,584
337070,765,435,487
337074,555,462,418
337078,278,556,480
337082,342,575,585
337086,653,489,570
337090,746,426,462
337094,484,480,421
337098,258,573,506
337101,401,567,592
337105,703,472,552
337110,708,429,446
337114,414,500,425
337118,258,581,524
337122,473,553,590
337126,741,463,527
337130,659,446,427
337134,354,529,445
337138,275,591,554
337142,545,535,594
337146,761,447,505
337150,593,458,421
337155,301,554,467
337158,314,589,578
337162,614,511,584
337166,756,428,480
337170,526,465,419
337174,270,561,489
337178,362,575,582
337182,671,492,560
337186,733,437,456
337190,454,494,424
337195,252,579,515
337199,426,560,592
337203,716,459,541
337207,691,425,436
337211,386,503,439
337214,263,581,543
337218,502,540,593
337222,744,443,516
337226,629,440,424
337230,329,532,454
337234,288,586,566
337239,573,520,592
337243,766,431,493
337247,576,452,418
337251,289,547,478
337255,331,575,586
337259,635,499,582
337263,749,428,474
337266,495,472,424
337269,259,562,506
337273,383,565,593
337277,682,476,556
337282,710,432,443
337286,422,499,424
337290,250,580,525
337294,459,554,595
337298,742,457,532
337302,679,435,426
337306,367,525,434
337310,270,590,548
337314,532,542,594
337318,757,462,511
337321,604,458,428
337325,313,534,465
337329,302,576,575
337333,590,524,594
337337,754,451,486
337341,533,477,418
337345,270,566,485
337349,352,577,587
337353,654,487,573
337357,732,424,461
337361,465,480,421
337366,258,573,509
337370,413,560,593
337374,697,467,545
337378,680,429,442
337381,382,506,431
337385,240,589,533
337389,465,554,600
337393,736,453,516
337397,650,438,417
337401,347,526,440
337405,271,583,554
337410,525,512,596
337414,732,419,506
337418,586,439,428
337422,307,541,475
337426,330,579,578
337430,629,500,585
337434,759,420,480
337437,521,459,430
337441,295,559,506
337445,403,566,592
337449,679,471,564
337454,711,409,447
337458,432,472,409
337462,260,566,501
337466,442,553,579
337470,705,461,515
337474,654,431,403
337478,386,511,435
337482,284,583,556
337486,493,538,594
337490,706,450,495
337494,605,450,385
337498,334,548,427
337502,307,608,578
337506,554,533,623
337510,700,441,529
337514,555,478,427
337518,341,595,477
337522,374,613,566
337526,634,515,529
337530,713,439,427
337534,501,501,408
337539,312,623,487
337543,419,602,587
337547,676,464,571
337550,677,395,463
337554,440,494,424
337558,345,591,538
337562,515,548,626
337566,711,440,575
337570,641,429,461
337574,411,537,461
337579,340,604,571
337583,527,539,605
337587,672,442,520
337591,539,478,387
337595,333,575,442
337599,336,581,584
337602,544,511,608
337605,689,460,467
337609,565,482,453
337613,330,555,511
337617,389,569,627
337622,609,476,581
337626,664,433,471
337630,459,522,457
337634,299,611,540
337638,474,599,591
337642,706,495,546
337646,676,448,492
337650,407,525,460
337654,232,635,518
337658,385,555,592
337661,621,422,555
337666,645,403,470
337670,423,533,483
337674,336,615,573
337678,550,545,576
337682,728,440,447
337686,534,509,351
337690,340,621,468
337694,356,630,601
337698,572,519,606
337702,702,392,520
337707,543,416,465
337711,398,532,517
337715,473,574,584
337718,682,470,570
337722,685,424,459
337726,474,495,440
337730,373,619,492
337734,484,613,553
337738,643,459,569
337742,555,399,470
337746,331,493,449
337751,319,602,547
337755,544,543,617
337759,733,442,519
337763,614,452,411
337767,364,571,428
337771,369,652,532
337774,572,551,584
337778,677,399,526
337782,546,401,459
337786,350,509,500
337790,402,564,595
337795,627,484,593
337799,721,418,457
337803,536,495,410
337807,368,620,466
337811,457,669,538
337815,706,541,544
337819,736,423,487
337823,495,465,462
337827,333,529,588
337830,481,487,649
337835,684,398,546
337839,568,402,414
337843,295,531,452
337847,298,580,591
337851,541,503,602
337855,650,412,487
337859,579,452,403
337863,411,596,469
337867,377,657,579
337871,606,566,585
337875,669,418,492
337880,510,425,419
337884,373,551,491
337887,471,571,564
337891,691,452,577
337895,742,424,427
337899,503,510,410
337903,341,561,559
337907,446,510,641
337911,678,433,545
337915,657,453,445
337920,404,535,467
337924,325,572,584
337928,526,517,606
337932,694,436,515
337936,607,466,406
337939,328,552,421
337942,282,579,592
337946,559,468,616
337950,689,395,500
337954,573,460,421
337958,370,566,469
337963,354,561,587
337967,655,457,583
337971,782,406,449
337975,558,484,432
337979,280,589,507
337983,402,575,578
337987,751,457,557
337991,766,406,441
337995,447,539,375
337998,245,612,535
338002,451,551,598
338007,771,461,520
338011,703,406,441
338015,350,487,428
338019,219,577,558
338023,495,507,608
338027,752,416,527
338031,584,536,378
338035,297,646,467
338039,300,645,547
338043,590,525,540
338048,746,377,505
338052,541,363,489
338055,302,491,512
338059,388,522,598
338063,719,430,586
338067,798,382,484
338071,511,470,435
338075,283,591,508
338079,427,576,597
338083,729,437,568
338087,708,399,435
338092,388,531,399
338096,248,629,504
338100,462,532,622
338104,690,409,526
338108,554,408,436
338111,308,565,417
338115,310,653,542
338119,570,551,626
338123,760,400,534
338127,641,414,451
338131,344,536,478
338136,353,601,558
338140,627,575,531
338144,739,460,500
338148,520,437,467
338152,311,515,524
338156,424,513,597
338160,680,434,566
338164,706,446,389
338167,434,549,384
338171,254,576,534
338176,429,505,629
338180,706,434,586
338184,657,409,449
338188,366,474,449
338192,271,568,540
338196,498,552,572
338200,735,563,427
338204,582,591,334
338208,304,634,453
338212,293,555,633
338216,609,409,637
338221,813,320,538
338224,580,420,414
338228,291,653,385
338232,369,668,579
338236,697,476,578
338240,768,350,507
338244,486,373,474
338248,250,485,543
338252,400,505,593
338256,700,424,540
338260,669,389,449
338265,326,492,419
338269,226,611,491
338273,492,632,546
338277,743,514,496
338280,646,429,461
338284,305,515,458
338288,231,634,504
338292,562,563,591
338296,805,400,527
338300,672,384,431
338305,370,490,465
338309,342,542,588
338313,595,483,606
338317,756,429,456
338321,520,482,408
338325,265,562,528
338329,367,581,592
338333,674,496,575
338336,719,419,457
338340,438,461,429
338344,212,551,520
338349,377,572,547
338353,639,515,498
338357,659,510,399
338361,424,566,410
338365,291,598,562
338369,510,487,611
338373,727,374,519
338377,631,388,430
338381,359,528,392
338385,281,595,547
338390,556,503,614
338393,788,397,537
338397,606,414,448
338401,304,568,451
338405,335,639,589
338409,637,484,629
338413,734,382,514
338417,469,453,436
338421,234,575,483
338425,378,564,583
338429,648,449,546
338434,690,425,420
338438,430,532,410
338442,254,588,516
338446,449,541,562
338449,728,431,515
338453,669,410,394
338457,344,521,420
338461,218,608,529
338465,542,527,605
338469,789,418,540
338473,624,427,440
338478,332,548,434
338482,307,687,506
338486,595,603,580
338490,766,420,526
338494,534,396,462
338498,251,509,509
338502,341,549,569
338505,686,481,556
338509,756,442,438
338513,445,499,439
338518,206,563,539
338522,363,542,607
338526,696,485,514
338530,726,409,476
338534,422,502,433
338538,240,639,501
338542,463,556,581
338546,740,443,487
338550,652,411,433
338554,334,503,443
338558,276,599,520
338562,539,516,617
338566,742,422,521
338570,621,455,427
338574,350,566,483
338578,354,595,579
338582,640,470,599
338586,748,367,475
338590,494,424,425
338594,237,560,500
338598,332,602,585
338603,666,559,543
338607,727,447,431
338611,448,510,367
338615,234,590,514
338618,398,517,608
338622,716,442,520
338626,694,470,404
338630,381,491,477
338634,261,519,594
338638,516,472,628
338642,770,399,499
338647,652,472,382
338651,336,642,417
338655,288,643,570
338659,561,506,632
338663,763,367,496
338667,572,420,372
338671,276,568,466
338674,317,578,593
338677,633,476,580
338681,756,398,481
338685,486,448,440
338690,234,582,492
338694,398,649,543
338698,704,498,574
338702,698,393,468
338706,412,478,446
338710,225,597,540
338714,413,573,577
338718,744,440,513
338722,673,388,432
338726,335,475,458
338729,265,633,537
338733,543,581,581
338737,756,418,496
338741,585,388,436
338745,292,498,480
338749,301,554,598
338753,611,482,618
338757,776,429,447
338761,549,473,396
338765,288,568,455
338769,374,598,540
338774,664,556,544
338778,718,510,423
338782,449,557,384
338785,233,595,564
338788,403,534,557
338792,708,431,541
338796,699,363,467
338800,369,440,457
338804,215,563,578
338808,455,525,650
338812,714,427,553
338817,641,415,460
338821,355,517,427
338825,312,607,483
338829,583,557,556
338833,773,450,454
338837,586,565,354
338841,293,732,430
338844,318,604,642
338848,614,407,627
338852,748,323,470
338856,503,425,454
338861,262,558,492
338865,356,567,601
338869,642,449,568
338873,686,407,494
338877,443,557,382
338881,286,728,460
338885,473,625,640
338889,729,439,572
338893,667,377,441
338897,344,491,436
338902,234,560,523
338906,509,511,592
338910,759,391,533
338914,625,406,420
338918,330,528,447
338922,310,654,505
338926,571,663,497
338930,729,446,522
338934,531,381,475
338938,284,492,530
338942,352,552,605
338947,646,501,576
338951,733,458,458
338954,449,509,420
338958,236,627,466
338962,412,635,519
338966,719,483,558
338970,717,373,452
338974,412,438,427
338978,248,586,507
338982,457,585,569
338987,737,455,505
338991,649,436,411
338995,346,503,482
338999,273,561,566
339003,527,507,611
339007,750,421,504
339010,584,439,443
339014,294,570,466
339018,320,631,570
339022,615,574,558
339026,750,483,432
339031,503,455,433
339035,254,506,529
339039,354,520,586
339043,675,443,580
339047,725,402,454
339051,429,518,395
339055,239,624,529
339059,429,585,591
339063,718,504,511
339066,690,492,426
339070,387,510,468
339075,259,570,532
339079,506,526,591
339083,753,454,517
339087,629,497,371
339091,318,604,393
339095,293,591,578
339099,580,453,641
339103,768,347,535
339107,562,395,444
339111,280,565,471
339116,342,615,585
339120,639,484,584
339123,744,390,479
339127,495,456,405
339131,250,608,449
339135,391,588,605
339139,699,477,531
339143,715,439,412
339147,417,551,420
339151,234,688,529
339155,437,575,637
339160,709,440,532
339164,654,463,356
339168,355,549,437
339172,269,561,599
339176,536,486,621
339179,746,386,533
339183,590,423,437
339187,309,610,404
339191,315,700,543
339195,592,593,597
339200,741,389,514
339204,520,389,440
339208,271,571,490
339212,364,589,587
339216,647,449,562
339220,721,379,440
339224,477,476,382
339228,269,595,516
339232,422,575,578
339235,709,448,558
339239,693,421,426
339244,400,564,391
339248,257,677,510
339252,464,646,580
339256,718,496,524
339260,627,409,467
339264,338,455,505
339268,285,524,610
339272,550,501,602
339276,739,410,495
339280,581,410,406
339284,311,527,451
339289,325,618,519
339292,627,551,565
339296,747,425,491
339300,500,460,427
339304,274,668,457
339308,385,708,535
339312,676,501,581
339316,713,357,499
339320,427,401,469
339324,241,508,531
339329,424,515,592
339333,713,446,509
339337,686,450,425
339341,395,549,431
339345,286,609,569
339348,509,544,616
339351,723,457,502
339355,601,477,412
339359,306,588,457
339363,291,623,562
339367,580,500,588
339372,749,389,484
339376,546,427,431
339380,299,530,495
339384,357,576,569
339388,637,533,517
339392,738,532,393
339396,484,574,401
339400,274,562,555
339404,417,501,630
339407,696,403,563
339411,681,378,434
339416,380,503,406
339420,247,627,509
339424,478,563,604
339428,743,421,538
339432,660,392,447
339436,350,501,455
339440,261,593,553
339444,529,559,557
339448,750,492,476
339452,600,505,398
339457,309,598,449
339461,334,592,590
339464,624,463,608
339468,751,387,481
339472,527,443,385
339476,283,562,470
339480,370,586,580
339484,659,456,580
339488,735,378,473
339492,458,451,431
339496,259,572,507
339501,434,630,528
339505,713,500,532
339509,686,401,474
339513,384,468,461
339517,266,555,544
339520,495,540,568
339524,734,483,478
339528,614,474,410
339532,327,553,428
339536,296,596,585
339540,578,503,615
339545,761,410,490
339549,571,453,413
339553,303,588,478
339557,342,591,584
339561,619,467,552
339565,735,390,446
339569,473,474,409
339573,244,593,519
339576,398,609,602
339580,687,495,558
339585,715,402,426
339589,436,482,438
339593,257,588,545
339597,445,555,582
339601,738,470,474
339605,695,457,394
339609,378,515,463
339613,272,585,579
339617,521,533,598
339621,758,425,501
339625,626,439,420
339630,338,592,460
339633,330,689,548
339637,602,573,581
339641,736,385,508
339645,524,392,434
339649,266,521,488
339653,346,582,573
339657,651,497,574
339661,738,422,437
339665,484,501,399
339670,280,610,533
339674,441,612,591
339678,713,478,564
339682,692,388,457
339686,398,479,437
339689,278,593,541
339693,500,561,585
339697,736,487,492
339701,634,510,381
339705,351,568,442
339709,291,575,575
339714,572,474,594
339718,773,372,500
339722,575,438,418
339726,291,613,437
339730,332,647,553
339734,639,547,591
339738,756,423,494
339742,506,455,439
339745,255,586,498
339749,379,609,581
339753,704,485,559
339758,733,412,450
339762,445,488,447
339766,265,598,523
339770,459,583,579
339774,733,445,548
339778,678,412,452
339782,385,549,435
339786,290,675,530
339790,526,572,593
339794,740,419,519
339799,609,426,431
339802,323,563,433
339806,314,616,557
339810,602,496,594
339814,762,393,472
339818,564,454,409
339822,297,582,492
339826,346,669,554
339830,642,545,560
339834,745,409,493
339838,499,465,451
339843,284,600,513
339847,406,596,603
339851,688,451,566
339855,700,383,437
339858,438,483,431
339862,293,598,527
339866,487,571,577
339870,724,452,524
339874,653,457,437
339878,360,577,487
339883,299,640,575
339887,534,532,583
339891,721,393,509
339895,554,424,404
339899,273,584,423
339903,330,627,559
339907,622,506,585
339911,753,393,472
339914,535,445,404
339918,294,586,497
339922,379,623,608
339927,664,497,596
339931,700,420,447
339935,426,506,407
339939,258,634,518
339943,446,590,621
339947,722,424,575
339951,696,369,457
339955,406,490,432
339959,289,616,521
339963,513,600,610
339968,745,471,524
339971,613,435,416
339975,318,562,448
339979,286,631,534
339983,543,514,590
339987,726,404,493
339991,534,456,414
339995,327,572,468
339999,386,591,598
340003,646,474,576
340007,735,395,488
340012,507,480,425
340016,300,597,526
340020,427,580,617
340024,702,457,571
340027,701,447,429
340031,437,562,407
340035,300,624,527
340039,500,550,606
340043,745,424,540
340047,666,430,426
340051,379,554,438
340056,303,633,543
340060,543,542,601
340064,720,400,531
340068,593,417,439
340072,337,552,460
340076,322,621,576
340080,622,546,588
340083,773,414,486
340087,548,437,414
340091,307,564,469
340096,390,612,566
340100,683,521,545
340104,751,427,462
340108,498,468,440
340112,296,567,528
340116,430,546,620
340120,701,439,577
340124,693,419,418
340128,421,533,425
340132,292,624,519
340136,495,567,581
340140,740,440,517
340144,647,412,454
340148,369,518,461
340152,318,588,578
340156,579,514,598
340160,764,417,505
340164,606,453,408
340168,326,569,474
340172,337,616,582
340176,647,533,577
340180,768,418,478
340185,538,450,424
340189,302,572,470
340193,405,584,575
340196,695,461,563
340200,733,407,454
340204,454,504,402
340208,285,631,510
340212,450,572,617
340216,719,421,564
340220,674,395,450
340225,403,541,428
340229,292,660,528
340233,529,591,565
340237,758,461,517
340241,634,415,441
340245,374,522,478
340249,349,580,582
340252,606,484,581
340256,763,385,494
340260,566,465,422
340264,323,628,458
340269,402,662,539
340273,666,549,580
340277,737,400,503
340281,504,430,449
340285,295,551,516
340289,436,557,587
340293,711,459,545
340297,700,425,447
340301,419,526,415
340305,289,635,520
340308,499,575,582
340313,737,422,551
340317,651,403,464
340321,369,537,462
340325,294,646,557
340329,544,562,603
340333,724,418,504
340337,575,424,434
340341,330,570,458
340345,343,640,552
340349,619,535,556
340354,739,420,473
340358,501,457,442
340362,289,584,491
340365,381,579,602
340369,677,445,593
340373,721,387,463
340377,444,474,414
340381,291,589,511
340385,463,578,585
340389,722,470,542
340393,688,426,443
340398,394,510,442
340402,276,609,513
340406,499,583,580
340410,723,459,492
340414,611,438,410
340418,336,543,467
340421,276,598,582
340425,556,499,630
340429,750,395,499
340433,567,439,413
340438,307,587,456
340442,339,625,574
340446,617,506,592
340450,721,406,478
340454,497,466,427
340458,281,579,508
340462,400,594,568
340466,684,490,532
340470,699,417,457
340474,435,493,438
340477,282,590,532
340482,460,555,600
340486,715,436,535
340490,664,412,426
340494,384,529,435
340498,300,611,563
