244374,481,581,590
244378,514,498,571
244382,540,427,458
244386,523,473,418
244390,483,568,514
244395,488,568,604
244399,522,473,549
244403,539,429,433
244407,511,501,422
244411,478,585,533
244415,495,554,599
244419,539,453,523
244422,545,433,425
244426,507,525,451
244430,480,593,561
244434,505,534,601
244439,545,437,508
244443,538,447,421
244447,495,546,472
244451,478,585,584
244455,514,510,589
244459,547,430,479
244463,523,466,419
244467,483,568,497
244471,483,581,597
244475,523,491,565
244478,546,430,450
244483,516,491,422
244487,477,583,519
244491,486,567,598
244495,532,467,540
244499,544,430,437
244503,507,510,437
244507,479,588,545
244511,497,547,596
244515,538,450,511
244519,543,441,422
244524,496,533,455
244528,470,591,567
244532,504,527,591
244535,538,435,486
244539,525,452,411
244543,480,549,477
244547,478,580,585
244551,520,502,576
244555,548,428,464
244559,517,473,415
244563,476,572,507
244568,483,576,595
244572,525,482,554
244576,543,430,443
244580,511,498,424
244584,477,584,526
244588,492,556,598
244591,535,460,528
244595,541,435,424
244599,504,515,441
244603,475,582,556
244608,501,534,600
244612,541,442,511
244616,534,447,418
244620,490,543,467
244624,478,592,580
244628,509,520,589
244632,537,438,481
244636,496,475,416
244640,441,574,495
244644,466,587,599
244647,520,493,572
244652,557,426,460
244656,537,479,421
244660,497,573,519
244664,498,562,599
244668,539,466,545
244672,552,425,434
244676,516,500,431
244680,481,583,544
244684,498,549,602
244688,535,451,522
244692,541,436,419
244697,500,523,443
244701,477,592,558
244704,503,536,591
244708,542,438,490
244712,531,448,412
244716,489,543,474
244720,476,577,583
244724,509,500,580
244728,541,422,469
244732,524,461,415
244737,486,560,503
244741,480,572,599
244745,516,483,562
244749,535,427,446
244753,506,487,425
244756,477,576,530
244759,492,557,602
244763,529,463,532
244767,539,433,426
244771,503,514,441
244775,472,590,553
244780,491,543,596
244784,535,440,502
244788,538,438,411
244792,498,536,459
244796,477,593,573
244800,503,527,589
244804,537,434,481
244808,523,457,410
244812,485,556,482
244815,478,583,590
244819,512,504,580
244824,539,432,459
244828,519,480,418
244832,481,575,510
244836,484,571,595
244840,518,475,551
244844,538,427,440
244848,510,500,432
244852,476,587,538
244856,491,556,602
244860,531,458,525
244865,537,441,426
244869,497,528,448
244872,472,591,558
244876,495,538,590
244880,532,442,495
244884,532,451,410
244888,493,545,466
244892,478,586,582
244896,508,511,586
244900,541,430,472
244904,526,463,415
244909,485,562,497
244913,482,577,595
244917,516,487,565
244921,540,426,453
244925,516,486,430
244928,481,579,522
244932,488,566,602
244936,524,469,542
244940,538,431,435
244944,504,511,439
244948,473,589,551
244953,491,549,603
244957,532,451,519
244961,534,444,422
244965,497,532,457
244969,474,586,571
244973,501,524,594
244977,535,436,488
244981,531,455,411
244984,491,552,474
244988,480,582,584
244993,509,501,575
244997,539,426,464
245001,518,469,419
245005,482,562,510
245009,486,571,600
245013,523,482,558
245017,543,425,443
245021,514,486,430
245025,477,573,534
245029,489,557,602
245033,526,464,537
245038,538,438,428
245041,504,519,444
245045,478,586,556
245049,496,539,597
245053,533,449,505
245057,531,451,416
245061,492,539,464
245065,474,577,576
245069,502,509,587
245073,534,429,484
245078,522,454,412
245082,483,548,488
245086,475,571,589
245090,509,488,564
245093,536,422,448
245097,515,476,416
245101,476,569,518
245105,482,566,603
245109,525,472,547
245113,538,428,438
245117,505,500,434
245122,475,583,539
245126,489,550,597
245130,528,454,522
245134,533,438,422
245138,497,523,452
245142,473,586,565
245146,499,534,586
245149,533,441,488
245153,531,452,415
245157,495,548,471
245161,480,579,579
245166,511,504,577
245170,544,430,467
245174,528,467,415
245178,489,562,500
245182,484,574,595
245186,518,489,558
245190,537,433,447
245194,509,492,420
245198,476,575,521
245202,483,558,598
245206,521,462,535
245210,535,430,426
245214,501,507,436
245218,472,578,550
245222,492,543,602
245226,530,453,513
245230,534,444,417
245234,497,531,460
245238,476,590,572
245242,501,529,592
245246,531,435,489
245251,521,451,420
245255,484,543,485
245259,477,571,587
245262,511,494,564
245266,539,427,454
245270,517,476,412
245274,481,569,506
245278,480,575,594
245282,517,487,549
245286,537,438,437
245291,509,507,424
245295,478,586,531
245299,489,554,599
245303,529,456,527
245307,536,435,421
245311,498,522,445
245315,471,589,563
245318,499,536,601
245322,537,442,504
245326,532,449,418
245330,493,546,472
245335,473,588,575
245339,507,510,578
245343,539,429,470
245347,522,462,413
245351,482,562,493
245355,480,575,594
245359,514,488,565
245363,538,427,453
245367,517,485,420
245371,480,577,521
245374,484,560,597
245379,527,467,536
245383,541,430,429
245387,507,505,435
245391,476,584,547
245395,489,547,602
245399,531,454,518
245403,535,447,416
245407,497,526,451
245411,475,582,568
245415,502,523,592
245420,535,435,486
245424,528,451,412
245428,492,546,481
245431,478,578,588
245435,512,502,576
245439,543,430,464
245443,523,469,422
245447,486,564,510
245451,484,572,597
245455,520,485,554
245459,537,432,441
245464,510,492,429
245468,479,578,539
245472,491,555,603
245476,527,460,526
245480,541,437,422
245484,506,514,444
245487,478,581,559
245491,497,536,601
245495,534,443,503
245499,530,445,412
245504,490,538,462
245508,473,585,579
245512,502,518,591
245516,536,432,482
245520,527,458,417
245524,486,556,497
245528,476,579,599
245532,511,499,573
245536,538,434,460
245540,517,480,425
245543,478,567,519
245548,483,560,601
245552,520,471,545
245556,538,432,431
245560,506,498,431
245564,476,579,545
245568,489,547,605
245572,524,451,523
245576,534,438,424
245580,498,529,456
245584,477,591,570
245588,497,531,597
245593,531,437,496
245597,529,453,414
245600,493,549,473
245604,474,585,585
245608,501,511,586
245612,536,433,470
245616,523,469,415
245620,486,565,498
245624,479,571,595
245628,515,483,559
245633,539,427,445
245637,516,489,423
245641,481,581,526
245645,487,559,600
245649,525,459,535
245653,537,429,428
245656,504,510,432
245660,478,585,546
245664,496,539,590
245668,529,443,501
245672,534,441,408
245677,498,538,453
245681,476,591,570
245685,502,523,589
245689,537,435,484
245693,518,458,416
245697,483,556,490
245701,475,580,591
245705,512,498,570
245709,541,432,455
245712,521,486,411
245716,488,575,512
245721,486,570,601
245725,526,474,532
245729,542,423,410
245733,504,494,429
245737,470,582,551
245741,485,557,614
245745,528,461,535
245749,538,436,427
245753,510,518,449
245757,485,586,566
245762,503,541,597
245766,536,451,500
245769,535,451,415
245773,498,542,469
245777,480,587,583
245781,505,519,589
245785,539,441,482
245789,520,468,417
245793,483,558,495
245797,481,572,595
245801,519,487,568
245806,529,429,452
245810,510,481,424
245814,482,566,526
245818,485,555,604
245822,524,468,543
245825,537,436,434
245829,504,507,436
245833,471,578,542
245837,492,543,597
245841,538,452,516
245846,537,440,417
245850,501,526,454
245854,473,585,567
245858,499,525,590
245862,539,437,488
245866,531,455,411
245870,488,551,473
245874,474,584,582
245878,508,509,575
245881,536,436,465
245885,522,475,416
245890,479,571,507
245894,472,578,602
245898,515,486,562
245902,539,432,443
245906,512,495,424
245910,478,580,531
245914,484,560,608
245918,521,467,533
245922,533,436,424
245926,503,515,436
245931,474,584,547
245935,490,539,588
245938,530,447,498
245942,533,445,411
245946,495,534,455
245950,473,582,566
245954,503,518,581
245958,536,436,477
245962,526,460,413
245966,489,552,481
245970,482,576,587
245975,512,497,564
245979,535,432,451
245983,515,483,423
245987,483,572,521
245991,486,565,601
245994,524,473,545
245998,541,430,435
246002,510,497,432
246006,474,577,541
246010,485,547,601
246014,527,454,523
246019,540,436,422
246023,505,515,450
246027,480,577,563
246031,502,530,595
246035,539,444,496
246039,533,453,417
246043,493,547,477
246047,478,584,584
246050,508,509,583
246053,539,436,478
246057,527,469,413
246062,486,562,493
246066,477,575,594
246070,516,493,566
246074,540,435,451
246078,518,485,424
246082,484,573,526
246086,486,563,606
246090,522,477,540
246094,536,443,430
246098,508,513,436
246103,476,587,551
246106,494,552,600
246109,526,456,510
246113,529,446,417
246117,497,529,455
246121,475,580,568
246125,501,523,595
246129,535,443,486
246133,526,457,408
246137,483,548,476
246141,474,579,587
246146,511,507,570
246150,539,433,455
246154,519,474,412
246158,480,568,504
246161,480,569,595
246164,518,483,550
246168,539,435,436
246172,510,498,425
246176,475,581,536
246180,484,558,601
246184,529,465,527
246189,539,441,425
246193,505,516,447
246197,479,583,560
246201,497,540,598
246205,535,448,506
246209,533,449,417
246213,492,540,465
246217,472,584,580
246220,498,515,585
246224,533,435,475
246228,523,462,415
246233,484,555,498
246237,479,575,595
246241,517,494,566
246245,541,430,451
246249,517,483,419
246253,479,576,520
246257,478,573,606
246261,518,481,545
246265,539,435,432
246269,510,500,433
246274,478,576,547
246277,492,545,604
246281,524,452,518
246285,536,435,418
246289,497,520,451
246293,475,581,565
246297,500,526,594
246301,534,441,487
246305,528,454,411
246309,491,546,472
246313,478,580,580
246318,508,506,577
246322,537,430,462
246326,520,469,411
246330,484,564,496
246333,481,572,589
246337,515,483,550
246341,535,429,441
246345,512,490,424
246349,480,575,528
246353,489,556,599
246358,532,463,531
246362,539,432,426
246366,507,511,443
246370,478,583,555
246374,494,542,598
246378,532,450,507
246382,534,448,419
246386,497,538,462
246389,477,586,574
246393,502,520,587
246397,530,434,478
246402,524,454,411
246406,491,550,484
246410,483,578,587
246414,512,497,566
246418,540,430,451
246422,520,478,413
246426,484,570,511
246430,481,572,600
246434,518,480,548
246438,539,431,436
246441,515,500,431
246445,482,580,537
246449,492,548,599
246453,529,451,522
246457,536,432,424
246461,503,515,450
246465,477,581,563
246469,495,528,597
246473,533,437,500
246477,532,449,420
246481,492,545,476
246486,476,583,591
246490,508,509,582
246494,537,429,472
246498,521,463,415
246501,480,560,497
246505,478,572,592
246509,513,482,560
246513,541,424,444
246517,521,482,419
246521,481,573,519
246525,482,559,596
246530,522,467,533
246534,538,436,425
246538,506,509,437
246542,475,581,550
246546,490,543,598
246550,530,451,514
246554,537,445,422
246557,502,533,458
246561,475,587,573
246565,504,528,596
246569,537,442,496
246574,528,460,421
246578,493,554,486
246582,480,582,592
246586,511,499,577
246590,539,429,464
246594,520,473,420
246598,482,569,510
246602,478,576,602
246606,517,486,556
246610,537,432,438
246614,510,497,426
246618,474,582,533
246622,485,560,600
246626,528,471,532
246630,537,449,429
246634,501,530,443
246638,478,594,560
246642,498,539,599
246646,533,446,507
246650,531,453,422
246654,492,543,468
246659,469,587,579
246663,498,519,592
246667,537,439,479
246670,527,463,412
246674,488,559,489
246678,478,578,594
246682,510,495,569
246686,537,432,458
246690,517,484,423
246694,480,574,516
246699,483,569,597
246703,521,473,545
246707,540,429,439
246711,507,498,436
246715,472,579,546
246719,489,549,608
246723,528,454,527
246726,535,442,426
246730,500,526,449
246734,478,583,564
246738,500,531,592
246743,534,446,494
246747,530,459,419
246751,490,549,479
246755,477,584,588
246759,506,512,584
246763,539,441,473
246767,525,480,421
246771,486,568,512
246775,483,574,609
246779,516,487,567
246782,536,430,447
246787,511,491,425
246791,477,576,526
246795,488,555,601
246799,525,459,534
246803,536,432,428
246807,506,513,439
246811,477,586,554
246815,493,546,601
246819,534,453,507
246823,536,450,416
246828,497,540,463
246832,475,584,576
246836,500,521,590
246839,535,440,481
246843,526,463,420
246847,490,558,491
246851,478,580,589
246855,511,500,571
246859,539,433,456
246863,519,477,415
246867,481,567,509
246872,483,567,596
246876,520,478,547
246880,535,432,434
246884,505,495,426
246888,475,573,536
246892,492,548,597
246895,531,459,521
246899,537,441,423
246903,504,520,444
246907,475,581,554
246912,492,527,590
246916,532,436,491
246920,534,451,410
246924,492,547,466
246928,474,582,576
246932,504,508,581
246936,536,431,474
246940,522,467,415
246944,484,562,496
246948,478,578,594
246951,515,499,564
246956,540,438,454
246960,517,487,428
246964,479,575,526
246968,485,565,603
246972,522,475,540
246976,536,440,434
246980,507,510,437
246984,477,584,546
246988,491,551,600
246992,528,464,513
246996,535,450,415
247001,498,534,454
247005,477,589,567
247008,498,527,594
247012,532,441,487
247016,526,457,411
247020,487,549,480
247024,477,581,589
247028,511,508,579
247032,540,436,464
247036,522,474,419
247041,480,566,511
247045,483,574,599
247049,521,485,557
247053,542,430,447
247057,514,492,435
247061,479,575,536
247064,489,555,603
247068,527,463,533
247072,536,438,430
247076,503,515,452
247080,476,582,569
247085,494,541,596
247089,531,451,498
247093,533,451,410
247097,492,537,462
247101,474,582,575
247105,504,519,584
247109,537,443,478
247113,528,464,410
247117,488,553,489
247120,478,573,591
247124,512,494,569
247129,537,435,454
247133,515,489,421
247137,479,577,523
247141,479,569,609
247145,514,477,551
247149,534,434,437
247153,504,501,438
247157,474,580,546
247161,492,549,600
247165,531,455,520
247170,538,441,424
247174,502,527,457
247177,475,585,570
247181,498,528,596
247185,532,438,492
247189,526,450,411
247193,488,542,471
247197,477,580,583
247201,508,507,579
247205,537,432,468
247209,525,472,417
247214,487,569,506
247218,480,579,597
247222,515,489,562
247226,537,431,448
247230,514,488,426
247233,479,572,527
247237,486,558,607
247241,524,469,540
247245,537,437,433
247249,502,512,448
247254,472,582,557
247258,492,546,598
247262,529,457,507
247266,530,448,417
247270,493,531,463
247274,475,582,575
247278,501,526,587
247282,537,447,482
247286,528,460,414
247289,485,547,484
247292,475,574,589
247297,508,496,572
247301,532,430,459
247305,518,474,416
247309,483,566,512
247313,481,570,599
247317,518,484,558
247321,541,439,443
247325,511,499,431
247329,478,578,542
247333,488,556,612
247337,526,467,530
247342,534,445,425
247345,499,522,447
247348,474,585,562
247352,494,536,599
247356,530,448,502
247360,526,452,416
247364,489,540,472
247368,472,578,582
247372,502,508,583
247376,537,430,470
247380,524,458,410
247385,484,550,496
247389,475,569,595
247393,513,488,559
247397,541,427,443
247400,519,478,411
247404,481,565,514
247408,486,559,596
247412,526,474,543
247416,540,436,432
247420,509,503,435
247425,473,579,550
247429,486,546,602
247433,527,456,517
247437,536,448,421
247441,502,530,458
247445,479,588,572
247449,502,530,594
247453,539,441,486
247456,529,455,412
247460,485,546,475
247464,472,581,583
247469,505,514,573
247473,537,442,461
247477,521,479,412
247481,480,567,502
247485,476,570,594
247489,514,482,555
247493,535,434,444
247497,501,496,427
247501,471,579,536
247505,485,557,602
247510,525,463,528
247513,538,437,424
247517,507,517,443
247521,477,585,553
247525,496,536,599
247529,533,451,508
247533,535,454,419
247537,496,535,471
247541,475,579,584
247545,499,516,593
247549,535,436,483
247554,526,464,418
247558,489,556,486
247562,478,574,586
247566,513,496,561
247569,540,434,448
247573,521,481,414
247577,480,569,511
247581,483,567,590
247585,521,475,539
247589,541,429,435
247593,513,496,433
247598,477,576,542
247602,488,546,601
247606,527,455,523
247610,534,440,422
247614,500,521,452
247618,478,581,571
247622,498,534,599
247625,536,447,497
247629,532,451,419
247633,494,534,475
247638,478,569,581
247642,512,502,577
247646,539,435,466
247650,526,466,413
247654,488,552,498
247658,483,567,593
247662,517,488,558
247666,539,435,449
247670,516,492,422
247674,482,576,523
247678,485,562,597
247682,521,470,533
247686,538,436,423
247690,505,507,435
247694,475,578,547
247698,489,541,601
247702,529,452,514
247706,534,447,420
247710,495,532,463
247714,473,582,571
247718,499,519,593
247723,536,435,489
247727,530,461,418
247731,491,559,486
247735,475,586,591
247738,512,503,581
247742,542,433,468
247746,523,476,423
247750,485,564,515
247754,483,565,602
247758,516,479,552
247762,534,434,441
247767,509,499,430
247771,476,580,538
247775,483,550,604
247779,525,451,524
247783,535,426,418
247787,502,508,440
247791,475,574,555
247794,492,524,592
247798,528,436,499
247802,530,442,415
247806,494,533,468
247811,475,577,580
247815,503,514,588
247819,536,433,479
247823,524,460,416
247827,486,549,498
247831,478,567,596
247835,518,493,569
247839,541,435,456
247843,519,483,430
247847,483,568,525
247851,487,562,601
247855,523,478,537
247859,537,442,428
247863,507,507,434
247867,476,585,548
247871,490,561,603
247875,526,471,519
247879,532,453,423
247883,500,531,461
247887,477,587,577
247891,494,534,598
247896,531,453,499
247900,530,470,421
247904,494,555,487
247907,478,587,592
247911,510,516,586
247915,537,446,472
247919,521,481,426
247923,487,566,503
247927,483,572,595
247931,516,490,555
247936,536,439,440
247940,509,495,421
247944,473,577,529
247948,483,563,603
247952,526,476,529
247956,538,443,412
247960,503,509,426
247963,477,578,545
247967,495,542,591
247971,532,457,499
247975,533,455,409
247980,496,542,455
247984,473,588,572
247988,501,523,585
247992,534,442,477
247996,523,471,409
248000,485,566,489
248004,477,585,596
248008,514,501,569
248012,540,436,451
248016,517,480,412
248019,478,568,515
248024,476,564,603
248028,519,475,551
248032,539,435,434
248036,511,500,427
248040,478,580,542
248044,489,551,605
248048,524,458,524
248052,537,442,423
248056,506,527,451
248060,478,587,565
248065,495,532,597
248069,535,442,495
248073,531,451,411
248076,494,545,474
248080,474,581,587
248084,502,515,585
248088,532,441,473
248092,526,473,414
248096,488,560,500
248100,480,570,607
248104,513,491,571
248109,539,435,450
248113,517,486,424
248117,480,573,529
248121,482,561,604
248125,523,471,540
248129,538,437,428
248132,505,505,436
248136,474,576,553
248140,494,540,602
248144,530,452,510
248148,533,445,413
248153,496,525,453
248157,475,577,571
248161,498,524,591
248165,532,443,485
248169,526,458,413
248173,494,548,482
248177,481,574,592
248181,511,501,579
248185,540,435,466
248188,523,478,423
248193,485,567,515
248197,483,568,602
248201,519,479,552
248205,536,434,438
248209,511,500,426
248213,479,583,539
248217,490,558,607
248221,526,464,536
248225,534,439,426
248229,505,517,451
248233,476,580,563
248238,494,531,601
248242,531,444,504
248245,532,451,417
248249,494,542,471
248253,478,583,584
248257,503,511,587
248261,534,428,474
248265,526,461,411
248269,489,558,489
248273,477,573,593
248278,513,494,571
248282,537,434,451
248286,514,486,420
248290,482,574,522
248294,486,564,599
248298,522,475,542
248301,539,445,432
248305,509,517,438
248309,473,588,544
248313,489,547,600
248317,527,458,520
248322,535,446,419
248326,500,526,454
248330,475,580,568
248334,493,530,592
248338,530,446,486
248342,529,458,414
248346,493,546,477
248350,477,578,583
248354,506,510,571
248357,538,440,462
248360,528,475,415
248365,487,564,500
248369,480,570,595
248373,515,487,559
248377,540,438,443
248381,516,501,424
248385,480,580,532
248389,484,559,609
248393,525,467,539
248397,540,437,432
248401,508,514,441
248406,479,585,554
248410,493,541,595
248414,527,449,502
248418,534,447,415
248422,498,534,460
248426,475,580,573
248430,496,516,588
248434,530,433,480
248438,526,458,410
248442,488,551,486
248446,474,575,589
248451,508,499,572
248455,539,436,450
248459,520,479,408
248463,483,564,504
248467,483,561,593
248470,517,478,543
248473,535,438,436
248477,509,501,428
248481,479,581,538
248485,489,552,602
248489,526,459,523
248494,538,442,423
248498,506,521,449
248502,480,583,560
248506,499,533,596
248510,534,444,499
248514,531,454,418
248518,493,546,478
248522,475,578,582
248525,503,505,578
248528,537,435,468
248532,527,476,412
248537,482,564,491
248541,476,571,591
248545,515,488,559
248549,539,434,447
248553,519,489,420
248557,482,575,520
248561,486,560,600
248565,523,472,542
248569,537,438,433
248573,507,507,438
248578,478,579,554
248582,492,543,603
248585,531,452,514
248589,532,444,422
248593,499,531,463
248597,478,585,571
248601,499,527,591
248605,532,446,488
248609,532,462,417
248613,493,547,480
248617,477,573,587
248622,506,501,574
248626,534,433,459
248630,523,472,413
248634,485,560,501
248638,480,565,596
248641,516,484,552
248645,537,437,443
248649,513,496,425
248653,481,575,528
248657,488,555,597
248662,525,465,525
248666,538,438,422
248670,508,511,440
248674,477,580,551
248678,495,540,599
248682,531,454,503
248686,533,452,417
248690,496,537,471
248694,476,582,579
248697,503,519,587
248701,537,442,479
248706,528,465,415
248710,487,555,492
248714,478,572,598
248718,513,494,571
248722,539,435,454
248726,517,481,423
248730,481,564,517
248734,482,561,598
248738,520,478,540
248742,536,437,433
248747,505,504,433
248751,476,582,541
248754,489,552,601
248758,525,464,520
248762,534,450,421
248766,503,527,451
248770,479,582,559
248774,499,529,593
248778,531,447,496
248782,529,456,415
248786,495,543,471
248791,479,579,578
248795,507,515,575
248799,538,444,464
248803,524,474,414
248807,486,558,502
248810,478,567,593
248814,507,486,553
248818,538,435,437
248822,516,488,424
248826,481,570,525
248830,483,557,599
248835,524,470,533
248839,540,439,419
248843,509,509,434
248847,479,576,555
248851,491,541,602
248855,526,457,508
248859,530,449,414
248863,497,528,458
248866,476,580,577
248870,500,529,593
248875,533,456,486
248879,524,474,418
248883,490,556,491
248887,480,575,596
248891,508,497,573
248895,535,433,463
248899,522,475,427
248903,486,564,518
248907,483,564,603
248911,521,481,551
248915,537,438,440
248920,510,497,434
248923,477,575,543
248927,487,553,602
248931,525,465,524
248935,536,448,430
248939,501,526,449
248943,472,580,561
248947,492,533,595
248951,534,456,504
248955,534,457,413
248960,496,537,468
248964,479,575,579
248968,507,516,583
248972,537,439,470
248976,526,464,410
248979,484,556,493
248983,474,577,594
248987,509,495,562
248991,537,435,447
248995,516,485,423
248999,481,567,521
249004,484,556,598
249008,523,470,532
249012,539,435,429
249016,504,505,434
249020,474,582,549
249024,491,545,599
249028,531,456,509
249032,536,447,411
249035,497,531,447
249039,470,585,570
249043,500,531,588
249048,533,450,483
249052,529,462,415
249056,492,552,486
249060,476,579,594
249064,509,507,580
249068,539,435,465
249072,523,473,421
249076,482,563,512
249080,478,571,603
249084,513,488,557
249089,539,438,441
249092,511,497,426
249096,475,578,536
249100,483,554,601
249104,520,465,528
249108,535,442,420
249112,503,517,437
249116,474,583,553
249120,492,545,597
249124,534,463,503
249128,533,458,415
249133,490,535,464
249137,473,576,575
249141,503,518,581
249145,536,439,471
249148,528,462,409
249152,490,553,487
249156,477,577,595
249160,508,502,569
249164,537,437,453
249168,518,476,421
249172,481,555,517
249177,481,553,602
249181,519,472,545
249185,536,438,435
249189,509,502,435
249193,479,571,547
249197,485,536,602
249201,523,450,526
249204,531,434,430
249208,498,513,450
249212,480,575,557
249217,500,532,593
249221,538,449,494
249225,529,452,416
249229,491,532,472
249233,478,571,580
249237,506,511,574
249241,534,441,461
249245,522,467,409
249249,484,553,503
249253,481,581,600
249257,517,505,564
249261,542,442,448
249265,516,483,427
249269,480,565,532
249273,485,558,606
249277,525,475,539
249281,540,444,428
249285,505,511,434
249289,472,572,551
249293,491,532,595
249297,528,449,511
249302,530,442,424
249306,492,520,462
249310,468,573,575
249314,495,519,588
249317,535,441,480
249321,531,459,411
249325,487,543,479
249329,481,570,580
249333,515,503,560
249337,538,438,451
249341,512,478,415
249346,482,569,509
249350,487,574,596
249354,513,490,546
249358,533,444,432
249362,525,500,428
249366,490,573,534
249370,495,547,598
249373,533,462,522
249377,540,444,420
249381,502,517,452
249385,470,580,561
249390,490,536,589
249394,533,453,486
249398,532,454,409
249402,484,535,462
249406,457,575,568
249410,502,515,573
249414,544,441,476
249418,537,465,422
249422,499,546,511
249426,488,561,603
249430,516,490,556
249434,535,437,427
249438,511,483,396
249442,472,567,510
249446,467,561,583
249450,520,475,514
249454,543,440,455
249458,510,506,429
249462,477,577,523
249466,488,542,624
249470,534,453,547
249475,550,441,461
249479,515,518,486
249483,476,566,587
249486,480,515,594
249490,516,435,500
249494,535,457,424
249498,501,554,470
249502,483,586,578
249506,511,499,567
249510,544,411,489
249515,528,449,454
249519,495,540,492
249523,483,542,489
249527,505,464,488
249531,535,432,402
249535,522,492,445
249539,488,561,570
249542,483,550,657
249546,517,469,592
249550,533,437,473
249554,480,510,453
249559,451,574,517
249563,495,519,495
249567,547,420,480
249571,556,427,428
249575,517,535,437
249579,488,582,484
249583,499,515,488
249587,534,449,477
249591,535,478,405
249595,490,566,465
249598,470,564,626
249603,499,460,573
249607,538,393,435
249611,515,482,350
249615,460,585,433
249619,446,543,554
249623,475,436,574
249627,530,420,472
249631,542,502,485
249635,509,569,568
249639,520,529,646
249644,549,458,507
249648,535,488,392
249652,486,570,457
249655,405,611,552
249659,466,557,560
249663,564,466,489
249667,566,433,457
249671,515,492,531
249675,483,548,584
249679,490,521,557
249683,535,445,447
249688,528,517,384
249692,496,629,492
249696,486,640,599
249700,519,574,531
249704,554,486,449
249708,522,459,464
249711,445,510,537
249715,441,529,539
249719,523,514,490
249723,568,541,422
249728,543,582,475
249732,506,574,635
249736,487,497,670
249740,476,437,535
249744,483,455,447
249748,483,517,502
249752,485,536,650
249756,497,449,679
249760,514,381,554
249764,503,435,470
249767,453,500,548
249772,476,530,639
249776,524,496,584
249780,572,470,464
249784,564,496,440
249788,519,552,551
249792,497,533,662
249796,519,461,620
249800,518,432,485
249804,496,506,480
249808,457,591,605
249812,502,593,641
249817,543,549,527
249821,518,559,412
249824,482,660,472
249828,441,644,632
249832,468,536,694
249836,504,404,595
249840,491,425,466
249844,420,534,502
249848,369,603,623
249852,479,510,639
249857,568,449,491
249861,510,506,447
249865,467,558,552
249869,461,556,635
249873,515,459,556
249877,567,407,433
249880,539,493,421
249884,456,639,500
249888,389,632,626
249892,448,482,585
249896,482,482,412
249901,450,625,445
249905,467,710,576
249909,492,536,659
249913,506,345,570
249917,578,337,445
249921,532,475,429
249925,496,568,586
249929,499,467,631
249933,544,363,531
249936,564,405,428
249940,541,547,465
249945,465,663,572
249949,441,541,590
249953,495,444,470
249957,524,525,418
249961,495,607,527
249965,490,551,615
249969,528,448,529
249973,522,404,439
249977,480,486,443
249981,461,597,525
249986,505,612,582
249990,496,471,542
249993,490,399,431
249997,451,465,453
250001,417,555,542
250005,464,515,598
250009,538,410,504
250013,516,424,410
250017,448,567,443
250021,480,661,560
250025,536,580,569
250030,582,401,501
250034,563,387,435
250038,533,505,496
250042,515,550,577
250046,500,506,548
250049,469,429,447
250053,483,497,398
250057,494,551,532
250061,510,532,600
250065,491,427,539
250070,506,413,389
250074,519,492,456
250078,513,572,526
250082,505,613,537
250086,484,432,557
250090,496,351,461
250094,529,464,453
250098,527,600,520
250102,538,526,608
250105,501,404,496
250109,523,449,374
250114,553,605,468
250118,538,656,565
250122,496,535,585
250126,529,356,528
250130,572,350,441
250134,500,486,495
250138,468,536,609
250142,531,479,562
250146,580,485,424
250150,561,517,400
250155,465,646,465
250159,458,713,538
250162,536,459,554
250166,596,320,443
250170,558,419,433
250174,460,527,565
250178,503,475,650
250182,569,398,484
250186,567,426,407
250190,503,507,474
250194,502,617,554
250199,551,577,580
250203,563,447,509
250207,578,430,408
250211,572,521,480
250215,491,582,591
250218,463,497,569
250222,533,479,437
250226,553,508,419
250230,524,544,558
250234,508,534,614
250238,580,432,548
250243,557,370,445
250247,507,455,400
250251,503,558,537
250255,527,558,589
250259,518,455,514
250263,527,462,392
250267,540,544,401
250271,519,641,498
250274,472,579,614
250278,471,482,507
250283,547,472,438
250287,531,475,498
250291,486,550,562
250295,497,473,594
250299,566,357,504
250303,536,395,443
250307,507,543,508
250311,501,606,575
250315,483,524,529
250319,520,424,460
250323,506,457,389
250328,438,559,499
250331,557,588,572
250335,623,469,533
250339,568,448,444
250343,545,551,443
250347,529,630,545
250351,549,563,606
250355,587,367,552
250359,535,346,439
250363,489,481,452
250368,518,584,559
250372,498,541,557
250376,492,413,477
250380,478,421,424
250384,467,556,466
250387,399,693,537
250391,477,549,605
250395,561,377,495
250399,568,424,409
250403,549,543,495
250407,493,584,577
250412,524,512,551
250416,567,436,456
250420,515,465,447
250424,505,571,478
250428,554,588,576
250432,575,467,544
250436,561,400,460
250440,516,466,470
250443,460,604,533
250447,480,577,567
250451,510,477,469
250456,507,410,420
250460,481,481,469
250464,517,548,580
250468,519,491,569
250472,509,431,456
250476,480,453,412
250480,513,543,474
250484,511,608,583
250488,520,522,561
250492,531,396,464
250497,530,460,447
250500,503,561,529
250504,502,532,596
250508,546,489,486
250512,525,469,434
250516,533,518,437
250520,481,595,532
250524,496,526,574
250528,554,413,515
250532,573,390,441
250536,492,516,453
250541,457,592,584
250545,502,509,590
250549,538,405,487
250553,480,467,386
250556,476,606,454
250560,478,643,584
250564,480,507,555
250568,529,418,452
250572,529,445,431
250576,476,547,486
250580,481,569,560
250585,525,524,532
250589,581,456,454
250593,535,484,428
250597,465,550,549
250601,496,552,594
250605,527,468,536
250609,567,393,424
250612,531,489,413
250616,463,629,517
250620,467,588,594
250625,508,466,489
250629,509,446,434
250633,529,541,428
250637,493,624,557
250641,441,527,628
250645,518,378,511
250649,525,405,442
250653,448,523,502
250657,468,609,556
250661,522,547,505
250665,529,514,400
250669,510,506,442
250673,517,551,522
250677,528,586,579
250681,523,536,521
250685,528,438,437
250689,521,445,450
250693,454,490,581
250697,503,464,623
250701,509,410,523
250705,480,398,419
250710,522,492,445
250714,490,569,571
250718,439,522,593
250722,507,440,518
250725,546,508,405
250729,530,644,437
250733,483,640,570
250737,517,480,585
250741,533,374,459
250745,503,428,411
250749,497,587,482
250754,504,608,575
250758,483,461,576
250762,507,362,445
250766,517,456,390
250770,481,576,513
250774,483,547,609
250778,511,435,539
250782,525,391,460
250786,524,486,444
250790,497,628,504
250795,502,705,497
250799,512,645,449
250803,476,469,445
250807,499,421,508
250811,512,473,620
250815,521,449,584
250819,512,356,470
250823,486,400,460
250827,441,553,497
250831,486,630,564
250834,519,597,525
250839,508,500,444
250843,485,461,448
250847,502,516,552
250851,547,528,609
250855,586,457,555
250859,583,439,418
250863,542,506,375
250867,487,620,518
250871,431,630,570
250875,473,468,540
250880,539,414,448
250884,486,508,434
250888,452,543,546
250891,456,474,617
250894,479,414,498
250898,496,493,369
250902,498,590,450
250906,501,610,582
250910,535,495,609
250914,553,404,482
250918,506,428,407
250923,491,555,491
250927,496,610,567
250931,519,518,534
250935,544,433,454
250939,527,501,433
250943,496,566,539
250946,469,583,599
250949,520,436,573
250953,536,369,458
250957,503,477,439
250961,456,613,521
250966,465,591,576
250970,527,526,456
250974,523,447,395
250978,458,496,465
250982,470,588,544
250986,460,582,539
250990,514,474,486
250994,549,393,465
250998,504,509,484
251001,435,633,581
251004,534,535,603
251009,607,525,441
251013,579,502,421
251017,491,511,530
251021,466,524,604
251025,511,474,591
251029,516,375,467
251033,498,437,408
251037,483,558,523
251041,494,563,575
251045,535,497,505
251049,511,461,421
251054,483,586,380
251057,485,703,535
251060,476,552,591
251064,520,441,497
251068,519,405,470
251072,482,492,494
251076,475,559,574
251080,501,498,594
251084,550,455,448
251088,564,571,344
251092,490,593,484
251097,456,535,617
251101,480,461,569
251105,508,405,465
251109,545,423,443
251112,517,528,527
251116,527,587,587
251120,525,502,544
251124,525,466,407
251128,509,560,379
251132,492,639,512
251137,499,541,624
251141,506,377,569
251145,451,348,467
251149,446,498,445
251153,454,582,571
251157,481,511,613
251161,548,428,456
251165,567,485,376
251168,514,583,461
251172,483,624,565
251176,514,502,598
251181,546,397,461
251185,527,490,395
251189,500,627,472
251193,504,612,610
251197,519,461,576
251201,524,380,457
251205,496,484,427
251209,468,643,483
251213,467,675,539
251217,483,483,566
251222,521,376,488
251225,472,477,449
251229,428,595,547
251233,518,563,585
251237,576,462,500
251241,561,485,399
251245,507,551,448
251249,466,586,575
251253,486,543,597
251257,511,400,509
251261,525,385,426
251266,483,519,443
251270,482,608,551
251274,539,529,568
251278,553,482,452
251281,500,496,427
251285,459,576,515
251289,496,584,600
251293,532,467,580
251297,542,390,462
251301,511,481,425
251305,487,613,517
251310,499,581,584
251314,527,459,517
251318,547,447,386
251322,520,585,406
251326,482,594,569
251330,481,494,625
251334,507,389,505
251337,506,441,407
251341,449,554,468
251345,417,606,562
251350,416,546,566
251354,505,426,488
251358,544,449,444
251362,478,573,463
251366,460,622,539
251370,464,510,575
251374,509,398,458
251378,566,464,423
251382,556,566,519
251386,529,607,574
251390,542,519,535
251394,542,448,423
251398,506,531,401
251402,483,584,564
251406,494,510,645
251410,537,417,546
251414,529,426,395
251418,510,565,443
251422,481,632,586
251426,463,521,599
251430,496,387,484
251435,553,407,414
251439,537,547,465
251443,474,618,530
251447,498,534,541
251450,539,428,493
251454,532,497,430
251458,473,580,518
251462,470,561,619
251466,518,445,579
251470,517,420,417
251474,504,508,376
251479,511,588,528
251483,489,567,607
251487,480,491,510
251491,519,460,448
251495,500,527,439
251499,456,619,542
251503,510,562,588
251506,564,419,509
251510,543,401,432
251514,458,507,477
251518,468,589,551
251523,500,550,567
251527,543,418,493
251531,539,419,416
251535,505,540,477
251539,515,589,583
251543,529,527,551
251547,502,448,424
251551,495,513,374
251555,499,596,495
251559,506,570,614
251563,524,445,602
251567,503,399,459
251571,448,512,424
251575,473,619,541
251579,491,574,625
251583,488,465,520
251587,524,447,404
251591,501,520,451
251595,480,588,558
251599,509,523,593
251603,512,443,494
251608,551,434,428
251612,521,536,458
251616,482,591,572
251619,514,510,561
251623,526,422,471
251627,539,462,420
251631,473,605,493
251635,431,609,576
251639,505,476,569
251643,544,405,441
251648,531,491,446
251652,499,628,525
251656,464,619,606
251660,478,464,579
251664,528,396,438
251668,504,485,440
251672,477,565,545
251675,506,514,615
251679,536,404,527
251683,531,430,398
251687,506,572,428
251692,487,627,560
251696,472,543,576
251700,461,430,492
251704,519,437,405
251708,515,568,469
251712,503,610,605
251716,504,492,583
251720,530,397,469
251724,523,479,428
251728,501,632,486
251731,523,633,569
251736,527,469,580
251740,512,386,451
251744,493,476,433
251748,475,611,504
251752,494,589,613
251756,513,454,537
251760,497,412,411
251764,480,516,437
251768,457,594,555
251772,502,536,598
251777,542,439,485
251781,537,469,378
251785,511,624,427
251788,448,667,566
251792,484,535,619
251796,569,377,500
251800,578,397,409
251804,521,526,498
251808,465,576,594
251812,467,477,582
251816,522,435,435
251821,519,525,401
251825,490,591,518
251829,488,562,611
251833,512,470,540
251837,519,423,432
251841,472,494,432
251844,465,578,548
251848,481,560,602
251852,532,478,519
251856,557,457,406
251860,520,577,395
251865,487,634,560
251869,483,519,616
251873,517,386,518
251877,531,435,425
251881,500,580,468
251885,488,596,596
251889,508,502,566
251893,545,412,452
251897,549,447,417
251900,514,576,493
251905,493,602,589
251909,493,483,563
251913,493,394,444
251917,455,475,405
251921,481,616,495
251925,496,616,574
251929,497,463,534
251933,522,399,440
251937,478,526,405
251941,449,639,532
251945,519,555,600
251950,536,428,512
251954,552,442,411
251957,526,574,453
251961,493,606,603
251965,511,502,612
251969,507,387,486
251973,529,457,398
251977,513,594,472
251981,479,588,583
251985,514,491,569
251990,529,426,460
251994,532,473,422
251998,487,569,515
252002,472,568,596
252006,490,470,553
252010,524,454,433
252013,517,558,411
252017,489,606,542
252021,468,542,591
252025,497,457,495
252029,543,480,431
252034,551,543,453
252038,497,589,570
252042,464,504,604
252046,506,397,494
252050,546,428,423
252054,506,573,434
252058,480,654,565
252062,478,552,598
252066,518,405,483
252069,523,427,430
252073,472,543,511
252078,492,564,623
252082,528,487,563
252086,541,450,409
252090,500,523,403
252094,486,628,533
252098,495,586,604
252102,502,445,547
252106,529,394,441
252110,503,522,447
252114,473,602,549
252119,476,524,611
252123,488,417,522
252126,540,435,423
252130,521,567,433
252134,502,639,543
252138,524,572,582
252142,535,460,462
252146,519,457,393
252150,505,564,484
252154,483,602,615
252158,472,479,608
252163,531,431,468
252167,523,516,385
252171,488,600,504
252175,448,609,599
252179,462,495,554
252182,521,426,460
252186,515,474,451
252190,513,555,549
252194,508,540,606
252198,539,443,520
252203,557,406,464
252207,506,509,458
252211,455,588,542
252215,464,561,550
252219,521,470,492
252223,558,455,419
252227,522,569,469
252231,500,596,605
252235,495,481,601
252238,517,407,477
252242,532,485,418
252247,497,612,483
252251,457,630,593
252255,470,514,556
252259,514,446,439
252263,513,508,423
252267,491,555,536
252271,456,532,605
252275,477,424,568
252279,559,375,458
252283,560,476,426
252288,526,609,508
252292,524,578,621
252295,518,440,546
252299,498,435,408
252303,519,572,458
252307,497,634,554
252311,505,520,592
252315,545,406,489
252319,544,410,432
252323,496,532,486
252327,473,595,579
252332,502,514,573
252336,559,450,443
252340,525,503,393
252344,474,619,490
252348,443,623,589
252351,486,499,573
252355,526,403,507
252359,528,446,448
252363,480,568,532
252367,455,576,583
252371,535,492,502
252376,554,430,454
252380,533,487,463
252384,500,575,542
252388,477,573,547
252392,505,455,526
252396,523,432,443
252400,502,545,453
252404,493,618,545
252407,505,552,607
252411,528,430,492
252416,532,419,437
252420,483,539,485
252424,460,572,587
252428,505,463,609
252432,561,410,476
252436,538,474,431
252440,497,594,494
252444,457,596,605
252448,458,440,593
252452,520,388,457
252456,511,490,408
252461,485,615,515
252464,486,563,620
252468,540,438,538
252472,534,439,442
252476,506,536,460
252480,493,577,592
252484,520,504,598
252488,537,450,460
252492,530,462,423
252496,490,528,479
252500,477,571,596
252505,523,516,584
252509,553,412,472
252513,538,443,408
252516,472,600,423
252519,433,661,575
252523,498,492,599
252527,523,393,451
252531,505,476,420
252535,480,587,563
252539,505,568,607
252544,541,484,512
252548,538,469,416
252552,494,511,454
252556,475,581,578
252560,468,524,643
252564,506,416,525
252568,532,406,402
252571,522,554,430
252574,488,636,557
252578,496,533,601
252582,526,433,467
252587,543,471,393
252591,509,547,474
252595,467,589,551
252599,481,532,560
252603,536,434,496
252607,530,490,439
252611,472,574,520
252615,455,563,580
252619,487,465,560
252623,544,400,445
252626,528,500,402
252630,468,596,543
252634,461,573,586
252638,526,471,505
252642,552,429,434
252646,518,552,458
252650,500,611,586
252654,516,521,625
252658,545,413,498
252662,534,444,375
252666,493,572,450
252670,491,591,595
252675,515,493,609
252679,535,404,487
252682,509,435,422
252685,480,559,484
252689,469,602,609
252693,501,492,591
252697,520,425,445
252701,508,491,382
252705,476,566,523
252709,432,568,571
252713,484,496,523
252718,570,447,457
252722,559,534,466
252726,510,596,560
252730,501,538,633
252734,541,444,532
252737,545,487,377
252740,514,621,396
252744,495,622,561
252748,508,493,632
252752,515,371,502
252756,504,452,406
252761,462,561,486
252765,460,572,609
252769,488,461,609
252773,530,387,482
252777,542,444,416
252781,507,574,471
252785,489,597,591
252789,505,457,602
252792,511,382,481
252795,505,469,417
252800,501,610,484
252804,497,612,578
252808,538,477,555
252812,564,439,425
252816,529,533,432
252820,457,604,573
252824,461,554,610
252828,510,435,517
252832,518,411,428
252836,482,514,457
252840,473,619,558
252845,500,519,613
252848,561,385,492
252851,536,436,404
252855,455,572,493
252859,446,616,586
252863,487,516,577
252867,545,402,473
252871,525,456,427
252875,474,578,536
252879,483,569,613
252883,564,452,532
252888,588,441,382
252892,558,505,426
252896,496,589,521
252900,480,577,602
252903,498,473,508
252906,523,426,435
252910,502,527,453
252914,482,608,560
252918,480,558,593
252922,529,422,525
252926,563,400,430
252931,516,515,468
252935,497,583,577
252939,496,512,590
252943,507,436,479
252947,486,507,397
252951,461,600,489
252955,492,590,587
252958,504,491,578
252961,537,424,460
252965,538,457,453
252969,506,543,515
252974,520,559,619
252978,549,488,545
252982,539,443,410
252986,508,507,444
252990,468,582,551
252994,495,543,606
252998,529,467,485
253002,539,458,417
253006,525,540,454
253010,500,588,592
253014,510,520,620
253017,524,419,506
253021,507,452,402
253025,467,646,425
253029,454,691,548
253033,516,523,607
253037,555,356,513
253041,533,464,389
253045,481,655,429
253049,472,623,596
253053,494,444,571
253058,556,330,497
253062,531,425,458
253066,494,550,553
253069,486,535,604
253072,503,453,480
253076,545,430,431
253080,528,523,434
253084,493,596,551
253088,494,514,636
253092,520,405,550
253096,531,435,411
253101,490,567,467
253105,477,611,602
253109,516,504,606
253113,523,444,445
253117,482,524,384
253121,459,635,484
253124,479,594,646
253127,517,447,591
253131,552,361,459
253135,542,440,385
253139,483,575,495
253144,468,562,609
253148,487,452,556
253152,522,424,430
253156,518,499,433
253160,503,597,527
253164,516,564,607
253168,543,447,519
253172,558,417,437
253176,517,526,470
253179,486,634,561
253184,503,554,609
253188,521,402,514
253192,501,422,391
253196,451,584,442
253200,452,641,595
253204,497,503,618
253208,558,396,474
253212,558,457,407
253216,504,595,507
253220,462,591,637
253224,484,469,576
253229,507,400,454
253233,521,479,399
253236,520,615,504
253240,510,624,577
253244,524,540,506
253248,546,437,455
253252,485,485,463
253256,464,574,547
253260,473,518,589
253264,494,385,522
253268,543,394,418
253273,538,556,444
253277,497,616,579
253281,502,523,601
253285,530,440,447
253289,511,462,403
253292,486,590,477
253296,483,637,590
253300,500,480,625
253304,535,353,508
253308,540,426,422
253313,511,573,488
253317,474,604,575
253321,512,486,562
253325,559,400,452
253329,525,504,407
253333,475,645,504
253337,455,570,627
253341,490,446,555
253345,530,440,418
253348,519,550,425
253352,513,583,585
253357,515,493,629
253361,529,403,520
253365,540,440,407
253369,506,558,457
253373,486,598,599
253377,483,500,596
253381,502,393,474
253385,531,440,403
253389,511,566,446
253393,494,614,597
253398,519,497,579
253402,534,417,455
253405,505,486,421
253409,457,612,516
253413,471,620,566
253417,525,518,513
253421,525,479,389
253425,498,511,411
253429,482,574,506
253433,479,532,600
253437,529,402,568
253442,568,395,472
253446,528,524,492
253450,493,589,574
253454,500,526,589
253458,528,467,471
253461,542,527,374
253465,514,576,467
253469,478,586,587
253473,489,457,601
253477,522,356,488
253481,523,431,407
253486,472,574,493
253490,448,589,599
253494,479,471,559
253498,518,419,416
253502,550,501,426
253506,530,603,552
253510,523,585,611
253514,539,475,520
253517,551,440,445
253521,516,544,448
253526,480,632,554
253530,496,560,619
253534,542,412,537
253538,538,413,420
253542,508,567,448
253546,470,623,553
253550,471,493,577
253554,486,394,496
253558,485,431,416
253562,474,550,487
253566,484,586,596
253571,522,512,560
253574,538,432,464
253578,520,472,421
253582,473,575,523
253586,473,563,613
253590,519,449,544
253594,559,443,414
253598,517,549,426
253602,479,626,538
253606,501,577,622
253611,536,470,533
253615,540,447,412
253619,504,531,454
253623,485,581,599
253627,466,516,601
253630,474,384,505
253634,522,393,444
253638,521,530,472
253642,497,616,566
253646,504,548,565
253650,533,419,477
253655,518,421,432
253659,474,552,497
253663,459,605,589
253667,496,500,581
253671,531,407,452
253675,533,510,398
253679,510,634,510
253683,510,569,616
253686,523,424,558
253690,551,384,454
253694,519,502,448
253699,468,618,532
253703,482,565,591
253707,537,433,503
253711,542,419,415
253715,492,523,449
253719,453,600,537
253723,493,542,588
253727,525,449,495
253731,501,490,403
253735,496,583,485
253740,500,585,578
253743,520,464,595
253747,528,364,497
253751,499,434,430
253755,480,576,511
253759,505,575,593
253763,546,463,558
253767,547,399,447
253771,515,506,416
253775,496,667,475
253779,493,617,608
253784,536,494,524
253788,544,421,427
253792,492,481,468
253796,443,548,565
253799,453,494,609
253803,519,390,530
253807,513,425,426
253811,507,553,463
253815,501,606,580
253819,530,530,572
253824,560,452,470
253828,517,505,404
253832,467,609,475
253836,497,566,602
253840,536,434,573
253844,554,374,445
253848,518,467,405
253852,467,612,508
253855,449,629,592
253859,515,466,536
253863,556,393,430
253868,503,493,471
253872,469,601,543
253876,505,568,601
253880,535,444,537
253884,551,428,414
253888,501,566,431
253892,450,662,556
253896,467,584,599
253900,548,435,499
253904,566,432,408
253908,527,526,456
253912,502,592,579
253916,505,505,596
253920,528,431,444
253924,536,470,412
253928,498,568,515
253932,471,563,600
253936,481,467,567
253940,530,408,433
253944,523,478,421
253948,482,586,550
253953,479,557,633
253957,499,437,548
253961,511,424,434
253965,503,553,400
253968,491,622,543
253972,499,554,599
253976,528,431,505
253980,528,429,418
253984,466,551,455
253988,433,621,550
253992,508,545,604
253997,555,400,503
254001,542,437,421
254005,482,563,500
254009,440,580,585
254013,461,486,541
254017,530,399,461
254021,544,453,436
254024,501,595,503
254028,465,601,560
254032,490,451,554
254036,562,368,481
254041,544,453,445
254045,505,576,536
254049,507,591,592
254053,539,502,524
254057,559,433,441
254061,509,508,477
254065,464,578,566
254069,493,501,597
254073,533,384,503
254077,518,418,405
254081,472,584,415
254085,439,673,567
254089,454,533,592
254093,535,395,458
254097,553,457,385
254101,507,574,544
254105,480,580,646
254109,510,519,547
254113,560,410,474
254117,542,448,433
254121,493,556,543
254126,479,539,610
254130,503,463,517
254134,532,426,424
254137,504,496,446
254141,487,583,539
254145,498,529,621
254149,535,416,520
254153,526,431,412
254157,466,559,472
254161,471,607,589
254166,510,512,567
254170,539,407,489
254174,516,443,427
254178,497,572,506
254182,454,605,597
254186,509,507,574
254190,567,429,451
254193,536,500,422
254197,498,637,494
254201,503,612,581
254205,516,473,529
254210,527,412,439
254214,512,477,461
254218,468,581,543
254222,488,575,599
254226,541,475,529
254230,540,419,443
254234,510,512,446
254238,492,594,560
254242,484,520,582
254246,496,406,499
254249,505,413,428
254254,503,554,440
254258,462,629,563
254262,482,517,623
254266,543,412,486
254270,560,451,415
254274,498,572,493
254278,451,614,570
254282,495,501,570
254286,552,383,471
254290,531,465,414
254295,475,609,532
254299,485,574,625
254303,516,446,558
254306,553,426,410
254310,530,517,442
254314,488,592,553
254318,504,555,581
254322,521,443,520
254326,526,418,425
254330,497,508,466
254334,473,598,573
254339,466,586,520
254343,511,433,506
254347,504,422,445
254351,488,536,491
254355,484,571,591
254359,490,525,605
254362,558,443,472
254366,558,455,413
254370,486,579,485
254374,492,590,597
254379,531,472,546
254383,555,436,460
254387,539,482,453
254391,495,559,547
254395,473,560,595
254399,508,449,538
254403,525,454,384
254407,514,565,369
254411,478,577,587
254415,466,514,644
254418,520,432,528
254423,553,460,405
254427,482,567,474
254431,440,620,577
254435,524,506,591
254439,580,386,480
254443,555,424,373
254447,488,582,434
254451,483,630,560
254455,518,478,638
254459,527,373,507
254464,506,467,450
254468,474,635,507
254472,488,605,590
254475,512,452,548
254479,532,381,447
254483,519,491,445
254487,499,624,495
254491,501,574,589
254495,515,418,547
254499,529,382,414
254503,482,499,454
254508,469,633,540
254512,491,556,615
254516,536,424,537
254520,547,495,411
254524,502,615,442
254528,475,600,578
254532,489,448,611
254536,538,353,474
254540,550,415,408
254544,517,571,478
254548,489,618,606
254553,502,525,527
254557,530,432,466
254561,517,469,470
254565,481,560,567
254569,466,534,615
254573,508,427,542
254577,550,387,449
254581,524,492,446
254584,499,610,561
254588,498,555,604
254593,504,417,490
254597,505,414,399
254601,479,534,445
254605,467,625,530
254609,507,551,573
254613,517,431,494
254617,505,449,431
254621,528,591,475
254625,530,621,610
254629,543,482,623
254633,557,377,505
254638,534,438,422
254641,500,568,486
254645,498,594,574
254649,518,554,508
254653,539,459,431
254657,500,460,447
254661,460,551,544
254665,478,532,605
254669,515,444,537
254673,522,433,441
254678,493,565,398
254682,462,649,555
254686,485,532,610
254690,489,403,514
254694,486,401,413
254697,477,529,447
254701,482,613,559
254705,534,518,595
254709,562,443,455
254713,542,506,394
254717,511,603,489
254722,505,601,627
254726,524,452,612
254730,528,359,483
254734,517,435,430
254738,506,587,511
254742,514,604,569
254746,534,478,532
254750,539,411,432
254753,496,518,405
254757,466,637,517
254761,462,588,610
254766,512,431,538
254770,506,389,433
254774,438,502,460
254778,451,600,541
254782,508,580,555
254786,552,460,501
254790,554,430,423
254794,492,531,480
254798,460,572,588
254802,509,495,591
254807,567,432,459
254810,548,498,383
254814,501,676,396
254818,489,643,578
254822,528,450,620
254826,559,361,502
254830,511,433,451
254834,465,564,519
254838,472,601,568
254842,498,481,536
254846,520,414,459
254851,462,495,459
254855,462,578,560
254859,517,552,589
254863,555,457,501
254866,553,434,426
254870,497,549,450
254874,451,609,550
254878,472,548,559
254882,551,509,427
254886,565,475,413
254891,488,514,517
254895,460,553,595
254899,508,475,553
254903,522,379,475
254907,532,437,430
254911,505,559,535
254915,485,576,608
254919,528,476,554
254922,545,437,430
254926,509,548,387
254930,463,639,528
254935,470,567,641
254939,542,422,557
254943,556,415,430
254947,494,539,419
254951,436,643,519
254955,473,593,548
254959,534,433,524
254963,552,400,438
254967,503,528,471
254971,471,618,546
254976,521,544,584
254979,552,405,517
254983,517,435,404
254987,471,567,468
254991,487,583,613
254995,515,506,544
254999,544,456,420
255003,533,537,430
255007,498,628,505
255011,493,579,615
255015,501,437,567
255020,498,387,432
255024,492,496,431
255028,483,599,564
255032,474,526,621
255035,521,408,504
255039,552,409,424
255043,493,510,459
255047,464,590,551
255051,507,550,602
255055,552,467,481
255059,551,470,406
255064,505,551,488
255068,496,586,533
255072,531,532,547
255076,548,433,477
255080,535,443,460
255084,498,546,555
255088,468,550,607
255091,484,448,551
255095,526,394,433
255099,503,489,419
255104,445,614,501
255108,432,592,581
255112,508,472,526
255116,551,404,455
255120,551,489,471
255124,511,596,543
255128,506,580,549
255132,534,467,439
255136,529,466,422
255140,487,586,503
255144,487,579,616
255148,508,461,612
255152,536,374,481
255156,522,446,391
255160,474,591,468
255164,465,601,585
255168,531,479,581
255172,564,389,479
255176,521,469,429
255180,488,584,483
255184,465,604,542
255188,450,491,542
255193,511,400,474
255197,528,490,423
255201,504,590,549
255204,491,527,633
255208,536,414,534
255212,543,403,427
255216,469,517,443
255220,434,598,580
255224,495,542,609
255228,556,448,510
255233,548,468,420
255237,491,597,455
255241,477,600,561
255245,492,481,579
255249,523,401,450
255253,524,470,418
255257,480,568,522
255260,456,589,583
255264,507,510,548
255268,573,437,457
255272,542,458,454
255277,490,549,525
255281,470,550,580
255285,519,457,540
255289,551,457,404
255293,505,550,424
255297,474,612,566
255301,492,529,625
255305,517,398,530
255309,538,408,422
255313,495,529,452
255316,492,590,567
255321,510,522,587
255325,494,416,464
255329,491,445,432
255333,530,551,501
255337,515,594,576
255341,511,501,566
255345,540,422,474
255349,503,491,405
255353,475,596,501
255357,494,566,606
255362,527,467,550
255366,528,443,454
255370,500,530,441
255373,484,585,533
255377,512,552,606
255381,532,466,510
255385,542,411,444
255389,497,497,438
255393,441,584,534
255397,476,527,598
255401,514,396,516
255406,531,401,420
255410,488,529,460
255414,478,615,566
255418,514,554,615
255422,553,455,486
255426,530,437,435
255429,494,524,511
255433,467,557,571
255437,506,475,549
255441,518,413,464
255446,489,507,409
255450,464,618,520
255454,509,582,583
255458,556,439,573
255462,554,388,456
255466,519,494,431
255470,477,598,552
255474,485,583,594
255478,519,477,506
255482,548,453,415
255485,520,586,418
255490,496,603,584
255494,504,484,623
255498,538,374,505
255502,540,400,423
255506,481,530,473
255510,443,578,576
255514,468,490,594
255518,503,431,454
255522,495,530,376
255526,472,633,480
255531,476,592,591
255535,504,466,588
255539,525,400,468
255542,526,497,424
255546,494,608,538
255550,466,553,610
255554,546,427,544
255558,574,400,429
255562,548,521,454
255566,480,637,528
255570,468,577,605
255575,517,424,510
255579,519,408,414
255583,487,529,426
255587,483,585,552
255591,485,504,612
255595,527,406,499
255598,551,459,408
255602,485,574,493
255606,470,596,585
255610,511,524,561
255614,517,441,449
255619,529,505,383
255623,492,604,491
255627,492,564,634
255631,518,452,572
255635,527,407,482
255639,514,500,454
255643,494,598,512
255647,487,554,598
255651,527,445,535
255654,562,445,420
255659,515,559,419
255663,487,627,511
255667,487,568,560
255671,517,456,486
255675,524,436,434
255679,471,541,455
255683,472,595,597
255687,488,508,587
255691,524,395,440
255695,554,450,394
255699,506,613,482
255704,484,590,610
255708,515,448,595
255711,549,354,476
255715,515,443,427
255719,464,599,508
255723,461,599,606
255727,528,473,541
255731,553,457,414
255735,489,538,436
255739,466,603,539
255744,501,544,603
255748,544,421,530
255752,564,398,404
255756,519,529,425
255760,479,609,568
255764,490,531,564
255767,547,453,434
255771,522,475,419
255775,474,536,534
255779,467,557,626
255783,492,472,596
255788,546,388,476
255792,531,462,407
255796,490,581,519
255800,472,590,617
255804,510,486,543
255808,563,450,406
255812,547,537,432
255816,487,618,531
255820,469,568,608
255823,488,448,516
255827,539,443,406
255832,545,543,444
255836,483,574,575
255840,479,508,603
255844,520,428,497
255848,533,430,446
255852,503,560,471
255856,479,597,580
255860,514,486,604
255864,532,380,482
255868,484,438,407
255873,447,562,456
255877,461,580,594
255880,525,484,572
255884,574,415,461
255888,554,490,413
255892,497,620,484
255896,460,633,601
255900,504,533,546
255904,534,438,447
255908,522,483,422
255912,502,578,549
255917,505,547,598
255921,526,436,521
255925,526,422,383
255929,492,545,430
255932,488,608,585
255935,482,524,639
255939,521,398,540
255943,516,421,429
255947,464,544,478
255951,476,586,586
255955,538,500,582
255960,557,444,469
255964,535,501,400
255968,454,610,461
255972,448,590,595
255976,517,448,578
255980,557,380,464
255984,540,491,394
255987,508,627,512
255990,496,580,614
255994,517,439,550
255998,505,392,427
256003,467,495,448
256007,484,605,558
256011,526,569,585
256015,555,431,514
256019,552,425,436
256023,487,546,459
256027,431,603,570
256031,488,522,581
256035,543,450,507
256039,554,447,428
256044,501,530,489
256047,473,587,572
256051,470,517,530
256055,479,416,457
256059,530,473,426
256063,520,617,488
256067,512,592,606
256071,525,470,567
256075,528,403,437
256079,492,492,416
256083,483,584,563
256088,506,533,644
256092,523,436,551
256096,528,445,398
256100,493,567,384
256103,463,598,564
256107,498,503,638
256111,542,389,555
256115,558,432,429
256119,513,560,468
256123,465,630,596
256128,479,529,571
256132,523,405,470
256136,525,433,405
256140,487,576,461
256144,481,584,596
256148,516,457,591
256152,538,387,463
256156,519,467,420
256159,476,599,497
256163,468,613,573
256167,508,516,505
256172,532,429,453
256176,536,490,466
256180,503,582,569
256184,480,550,621
256188,510,447,525
256192,507,441,409
256196,476,570,447
256200,463,651,562
256204,504,544,585
256208,548,397,499
256212,555,417,431
256216,500,566,451
256220,481,623,541
256224,497,497,576
256228,506,402,480
256232,474,463,418
256236,467,575,516
256240,488,584,597
256244,526,485,544
256248,555,408,432
256252,524,492,435
256257,478,644,509
256261,473,591,598
256265,516,414,584
256269,548,376,435
256272,469,498,437
256276,460,579,556
256280,505,521,646
256284,565,423,521
256288,565,460,388
256292,516,579,432
256296,482,637,557
256301,493,592,570
256305,518,442,505
256309,521,439,417
256313,465,562,488
256317,470,584,592
256321,520,501,554
256325,547,435,447
256328,500,459,434
256332,480,545,522
256336,473,542,612
256340,514,452,574
256345,559,402,434
256349,525,542,391
256353,496,648,524
256357,507,560,598
256361,533,416,536
256365,538,405,441
256369,504,536,465
256373,469,616,580
256377,489,548,593
256381,536,430,486
256385,535,417,428
256389,503,516,481
256393,459,568,575
256397,462,483,569
256401,525,415,475
256405,530,547,383
256409,496,672,497
256413,478,584,612
256417,490,448,574
256421,540,381,423
256425,522,457,383
256430,487,600,513
256434,508,599,616
256438,541,473,548
256441,556,415,466
256445,518,480,453
256449,469,577,562
256453,466,531,619
256457,479,417,518
256461,510,412,405
256465,527,527,445
256470,517,597,564
256474,518,538,592
256478,524,438,470
256482,501,454,407
256486,489,571,482
256490,497,603,567
256494,537,500,571
256497,550,414,440
256501,519,465,422
256505,477,589,505
256509,451,605,574
256514,487,475,545
256518,539,396,454
256522,539,478,438
256526,496,593,526
256530,486,586,585
256534,526,463,532
256538,526,408,443
256542,457,515,465
256546,420,637,526
256550,489,613,568
256553,572,444,510
256558,563,393,429
256562,511,496,469
256566,481,562,563
256570,501,505,582
256574,523,420,474
256578,520,451,418
256582,493,577,493
256586,488,616,576
256590,540,522,573
256594,530,431,463
256599,477,467,428
256603,452,587,498
256607,490,632,549
256610,525,520,533
256613,538,420,477
256617,504,467,468
256621,467,559,566
256625,486,518,609
256629,546,455,502
256633,551,513,398
256637,511,568,439
256642,462,565,578
256646,477,467,609
256650,532,376,470
256654,538,444,393
256658,498,585,478
256662,481,620,582
256666,515,494,617
256669,548,381,498
256673,526,433,414
256677,474,572,497
256681,464,598,603
256686,514,483,571
256690,567,403,454
256694,534,496,394
256698,500,639,503
256702,492,611,580
256706,488,485,529
256710,492,421,444
256714,499,473,458
256718,504,563,566
256722,518,521,617
256726,526,408,520
256730,539,418,392
256734,514,560,433
256738,474,659,552
256742,499,596,594
256746,528,439,486
256750,526,423,432
256754,484,524,494
256758,481,560,591
256762,510,474,586
256766,536,414,456
256771,532,493,367
256775,484,603,468
256779,447,601,596
256782,509,471,575
256786,534,380,480
256790,490,456,443
256794,464,567,539
256798,502,545,588
256802,529,457,506
256806,554,466,419
256811,522,554,454
256815,460,613,560
256819,454,537,596
256823,503,420,501
256827,499,416,407
256831,495,520,452
256835,476,572,579
256838,498,484,579
256842,533,445,439
256846,536,529,353
256850,515,592,518
256855,496,555,617
256859,518,442,574
256863,549,389,468
256867,550,470,428
256871,500,592,496
256875,496,566,603
256879,513,425,576
256883,500,387,443
256887,498,508,401
256891,478,605,533
256894,492,538,617
256899,532,415,532
256903,552,413,415
256907,509,524,455
256911,470,613,552
256915,479,536,593
256919,519,409,505
256923,533,422,414
256927,502,547,474
256931,477,609,575
256935,502,524,571
256940,533,457,447
256944,527,525,386
256948,477,586,507
256951,465,556,617
256955,538,445,583
256959,570,386,473
256963,522,473,439
256967,463,582,536
256971,471,579,576
256975,535,492,493
256979,554,458,434
256984,516,530,464
256988,477,632,556
256992,470,563,602
256996,489,416,543
257000,523,421,424
257004,505,541,464
257007,470,578,577
257011,491,496,592
257015,540,398,485
257019,549,424,412
257024,511,545,464
257028,492,583,576
257032,511,521,565
257036,535,466,458
257040,497,512,452
257044,469,590,548
257048,471,584,625
257052,497,460,554
257056,526,406,441
257060,493,504,419
257063,447,634,524
257068,484,596,590
257072,541,444,535
257076,519,404,443
257080,498,500,431
257084,508,592,564
257088,528,532,612
257092,531,442,490
257096,501,490,398
257100,521,574,461
257104,513,586,595
257108,505,501,594
257113,494,441,440
257117,499,504,405
257120,487,601,490
257124,509,567,621
257128,542,443,584
257132,545,378,442
257136,506,459,421
257140,465,570,530
257144,493,573,599
257148,530,476,543
257153,552,435,445
257157,497,514,454
257161,472,604,566
257165,491,554,599
257169,515,445,495
257173,529,430,402
257176,526,552,434
257179,491,625,565
257183,470,530,597
257187,531,440,460
257191,560,498,385
257196,520,577,480
257200,485,582,603
257204,490,492,593
257208,511,406,473
257212,543,461,417
257216,496,572,509
257220,500,568,606
257224,536,456,546
257228,547,405,427
257231,521,496,437
257234,469,593,548
257239,449,572,603
257243,492,466,535
257247,547,449,392
257251,517,548,431
257255,469,598,565
257259,482,531,615
257263,540,411,520
257267,569,443,412
257271,529,568,435
257275,470,611,572
257280,449,531,575
257284,503,415,495
257288,553,437,431
257291,514,581,491
257295,477,610,580
257299,502,497,565
257303,505,428,449
257307,474,476,415
257311,459,571,523
257315,512,571,607
257319,531,462,552
257324,565,415,448
257328,539,505,416
257332,472,628,498
257336,479,577,601
257340,531,424,537
257344,536,401,435
257347,509,519,463
257351,482,606,570
257355,470,555,582
257359,503,431,506
257363,522,448,405
257368,520,580,439
257372,514,615,570
257376,530,526,583
257380,537,421,476
257384,521,438,445
257388,495,550,523
257392,491,563,602
257396,504,474,567
257400,499,412,464
257403,492,497,432
257408,454,614,504
257412,477,598,585
257416,525,476,530
257420,554,419,430
257424,544,506,440
257428,500,595,544
257432,503,540,603
257436,515,462,476
257440,528,498,415
257444,513,548,474
257448,473,576,592
257453,482,499,590
257457,486,413,514
257460,496,437,438
257464,500,561,462
257468,494,603,575
257472,498,498,583
257476,545,430,450
257480,547,519,413
257484,494,593,529
257488,461,555,633
257492,525,439,562
257497,563,389,438
257501,539,477,405
257505,495,578,524
257509,475,549,605
257513,514,450,516
257516,551,468,392
257520,516,586,440
257524,465,621,567
257528,469,517,611
257532,527,398,507
257537,527,422,419
257541,452,529,482
257545,438,582,593
257549,496,503,577
257553,564,402,463
257557,564,443,405
257561,507,570,480
257565,464,587,613
257569,486,490,593
257572,547,433,468
257576,551,494,408
257581,491,613,511
257585,488,580,614
257589,520,464,546
257593,533,422,443
257597,501,500,458
257601,474,574,570
257605,471,532,608
257609,531,421,508
257613,562,422,417
257617,514,532,454
257622,455,636,533
257626,476,544,583
257629,556,404,520
257633,552,423,427
257637,495,561,486
257641,453,608,600
257645,451,509,598
257649,514,416,475
257653,542,472,384
257657,518,601,516
257661,510,578,603
257666,537,465,553
257670,543,425,437
257674,519,495,434
257678,455,586,556
257682,467,538,615
257685,523,423,506
257689,558,404,407
257693,524,522,420
257697,482,628,544
257701,501,564,594
257705,530,435,514
257710,527,437,431
257714,465,541,465
257718,453,606,561
257722,513,528,575
257726,544,412,513
257730,530,452,406
257734,494,594,433
257738,488,611,596
257741,483,477,606
257745,468,395,471
257750,475,470,417
257754,456,580,505
257758,487,585,579
257762,521,470,556
257766,555,432,441
257770,528,495,463
257774,481,574,564
257778,472,539,599
257782,514,430,520
257786,540,423,423
257790,495,541,448
257795,503,592,561
257798,540,522,598
257801,542,415,516
257805,522,446,406
257809,488,562,444
257813,496,609,567
257817,514,526,561
257821,550,444,445
257825,521,498,380
257829,462,596,487
257833,484,586,622
257838,512,462,605
257842,540,381,502
257846,508,466,436
257850,502,599,502
257854,501,605,574
257858,510,492,551
257862,529,446,422
257866,530,499,440
257870,498,586,547
257874,473,553,594
257879,529,421,534
257883,549,404,424
257887,494,541,420
257891,457,627,553
257895,468,525,590
257899,529,402,481
257903,543,435,417
257907,516,582,471
257910,485,626,607
257913,505,493,603
257917,538,387,466
257922,514,450,404
257926,499,586,488
257930,506,602,595
257934,520,502,561
257938,520,432,451
257942,517,510,412
257946,472,592,525
257950,496,559,598
257954,540,447,536
257958,535,416,440
257963,498,497,451
257967,480,579,546
257970,501,526,586
257974,529,427,502
257978,521,440,419
257982,481,561,450
257986,479,610,584
257990,506,534,585
257994,530,439,507
257998,518,459,412
258002,494,559,485
258007,498,590,613
258011,514,502,569
258015,515,418,446
258019,481,478,405
258023,483,587,508
258026,514,594,601
258030,546,496,558
258034,539,420,455
258038,508,480,438
258042,483,561,538
258046,462,545,592
258051,500,454,531
258055,537,422,433
258059,517,520,433
258063,483,613,556
258067,484,534,590
258071,527,430,468
258075,545,457,427
258079,503,550,486
258082,466,598,598
258086,483,513,601
258091,531,388,500
258095,533,421,426
258099,515,556,492
258103,494,582,590
258107,520,472,573
258111,541,403,470
258115,528,482,434
258119,493,601,520
258123,473,590,579
258127,511,492,509
258131,545,451,421
258136,532,531,422
258139,479,603,544
258143,480,544,599
258147,518,429,502
258151,523,444,411
258155,485,567,460
258159,426,596,586
258163,438,495,594
258167,493,387,464
258171,559,447,405
258176,529,579,476
258180,495,607,601
258184,502,483,593
258188,540,384,483
258192,536,448,424
258195,485,573,496
258199,491,576,585
258203,518,472,553
258207,544,419,440
258211,522,507,403
258215,500,621,529
258220,497,579,617
258224,521,437,554
258228,523,399,439
258232,480,496,458
258236,447,587,562
258240,460,543,593
258244,513,461,484
258248,558,496,391
258251,516,597,452
258255,471,619,572
258259,496,494,579
258264,543,383,484
258268,553,425,429
258272,506,560,493
258276,463,585,589
258280,470,481,582
258284,518,415,451
258288,529,528,380
258292,531,666,477
258296,518,591,616
258300,498,431,560
258305,507,388,420
258308,528,503,406
258312,493,595,543
258316,488,559,606
258320,543,434,541
258324,559,411,446
258328,499,528,427
258332,444,621,557
258336,473,551,620
258340,521,423,508
258344,523,415,440
258349,511,550,475
258353,501,605,568
258357,538,499,571
258361,532,397,473
258364,511,444,435
258368,491,585,485
258372,486,636,581
258376,516,521,543
258380,546,428,441
258384,527,482,420
258388,487,584,517
258393,478,553,609
258397,490,440,563
258401,486,404,449
258405,502,502,449
258409,454,592,555
258413,505,555,598
258417,550,462,508
258420,548,471,417
258424,475,578,447
258428,420,649,547
258433,460,575,581
258437,541,412,506
258441,567,396,447
258445,506,508,487
258449,463,565,581
258453,473,484,576
258457,518,400,473
258461,549,480,401
258465,504,622,500
258469,498,596,599
258473,533,446,568
258477,555,390,461
258481,512,482,435
258485,472,593,546
258489,472,549,620
258493,536,435,539
258497,540,442,399
258501,508,561,408
258505,461,630,533
258509,509,535,605
258513,562,405,536
258518,550,415,427
258522,492,539,466
258526,466,595,570
258530,472,501,559
258533,494,417,466
258537,503,470,424
258541,484,590,501
258545,470,610,598
258549,502,504,561
258553,560,420,446
258557,558,459,407
258562,508,575,523
258566,486,563,614
258570,500,462,549
258574,541,421,439
258578,532,495,424
258582,469,592,526
258586,464,565,576
258589,521,462,513
258593,544,456,420
258597,519,535,480
258601,473,584,583
258606,472,506,603
258610,507,416,484
258614,541,438,423
258618,477,529,499
258622,444,575,593
258626,519,508,566
258630,568,419,465
258634,522,456,417
258638,462,557,521
258642,450,587,589
258646,526,484,573
258649,531,390,464
258653,535,458,432
258657,504,594,518
258661,469,594,593
258665,492,465,553
258669,538,396,448
258673,537,501,430
258677,497,593,557
258681,505,531,591
258685,534,420,485
258690,552,431,428
258694,496,556,470
258698,443,635,542
258702,494,552,574
258705,548,425,476
258709,511,443,424
258713,466,583,493
258717,483,602,628
258721,515,467,604
258725,521,378,488
258729,534,457,424
258734,504,595,514
258738,488,589,596
258742,523,475,532
258746,544,410,439
258750,533,490,415
258754,492,591,531
258758,487,546,612
258761,530,429,524
258765,535,429,432
258769,510,534,428
258774,470,586,544
258778,482,505,593
258782,534,407,500
258786,549,441,421
258790,496,561,481
258794,487,605,593
258798,519,505,589
258802,522,412,465
258806,503,475,392
258810,474,582,496
258814,450,583,607
258818,483,471,585
258822,544,397,452
258826,541,489,380
258830,507,644,476
258834,496,600,593
258838,511,454,542
258842,519,392,446
258846,503,470,445
258850,488,572,544
258854,496,559,567
258859,526,480,501
258863,556,437,432
258867,528,532,454
258871,492,608,578
258874,503,519,604
258878,516,403,499
258882,517,436,408
258886,482,568,462
258890,448,607,580
258894,470,505,566
258898,515,440,436
258903,520,507,419
258907,502,606,502
258911,495,584,609
258915,513,452,584
258919,557,384,451
258923,548,483,442
258927,499,623,523
258930,496,665,519
258934,531,503,516
258938,537,385,456
258942,521,465,463
258947,474,557,572
258951,463,508,609
258955,481,402,518
258959,530,416,415
258963,512,550,442
258967,485,633,545
258971,516,554,574
258975,542,433,477
258979,489,467,405
258983,467,583,492
258987,470,597,609
258991,535,490,580
258995,573,445,430
258999,541,500,416
259003,470,582,533
259007,437,561,599
259011,508,451,550
259015,572,403,440
259019,549,506,421
259023,498,637,524
259027,468,582,607
259032,512,425,545
259036,530,383,444
259040,508,494,452
259043,499,583,565
259047,501,525,600
259051,527,435,487
259055,530,487,354
259059,452,638,414
259063,446,653,568
259067,505,491,600
259072,537,364,508
259076,495,414,422
259080,478,542,512
259084,476,561,615
259088,537,455,583
259092,576,389,452
259096,522,479,404
259099,450,608,514
259103,455,599,596
259107,537,479,530
259111,583,422,430
259116,545,500,456
259120,495,599,567
259124,491,553,608
259128,517,428,510
259132,530,432,400
259136,517,555,434
259140,480,618,568
259144,485,529,595
259148,529,412,484
259152,525,447,408
259155,461,582,468
259160,449,627,555
259164,486,517,550
259168,487,430,478
259172,528,479,446
259176,527,570,526
259180,505,563,617
259184,514,470,558
259188,537,436,411
259192,526,514,406
259196,497,625,528
259201,489,563,588
259205,532,420,533
259209,562,396,444
259212,521,503,445
259216,480,590,561
259220,480,522,613
259224,510,416,507
259228,494,446,397
259232,463,613,425
259236,469,675,584
259240,500,540,592
259245,539,402,500
259249,493,426,417
259253,447,547,487
259257,474,565,596
259261,520,463,573
259265,561,406,450
259268,556,486,417
259272,506,605,522
259276,489,598,588
259280,524,488,533
259284,546,431,442
259289,519,507,438
259293,493,603,557
259297,480,544,634
259301,504,417,557
259305,509,401,431
259309,498,552,410
259313,467,630,565
259317,454,528,596
259321,495,399,505
259324,522,414,407
259329,513,531,462
259333,489,583,593
259337,506,494,584
259341,559,391,470
259345,552,452,413
259349,497,589,490
259353,461,605,591
259357,514,515,549
259361,554,442,449
259365,542,500,417
259369,483,595,522
259374,473,557,593
259378,514,438,547
259381,522,401,431
259384,485,532,435
259388,489,626,548
259392,498,559,592
259396,536,435,501
259400,557,417,419
259404,507,526,461
259408,466,577,565
259412,479,494,602
259417,512,398,520
259421,506,451,400
259425,503,592,471
259429,487,604,591
259433,504,484,581
259437,549,384,475
259440,540,453,430
259444,497,585,505
259448,479,607,590
259452,501,499,558
259457,546,431,452
259461,536,500,427
259465,482,592,544
259469,463,560,603
259473,515,442,543
259477,526,423,443
259481,491,538,434
259485,466,631,563
259489,485,571,601
259493,541,464,489
259496,546,449,433
259501,500,536,482
259505,466,587,590
259509,516,501,590
259513,554,419,480
259517,530,473,396
259521,478,598,472
259525,477,613,579
259529,521,489,557
259533,562,420,426
259537,539,514,387
259542,479,589,540
259546,458,536,617
259550,513,421,555
259553,559,403,437
259557,520,507,430
259561,474,593,540
259565,490,536,604
259569,540,430,521
259573,543,433,432
259577,496,546,467
259581,482,613,558
259586,507,547,581
259590,520,436,488
259594,525,460,435
259598,492,567,475
259602,475,605,559
259606,515,505,579
259609,552,398,478
259613,522,456,411
259617,479,601,492
259621,496,615,592
259625,539,481,571
259630,540,400,445
259634,532,483,418
259638,483,643,489
259642,479,633,566
259646,531,451,570
259650,524,381,465
259654,486,472,459
259658,469,570,566
259662,474,529,602
259665,523,441,496
259670,570,448,389
259674,526,540,467
259678,485,589,587
259682,520,527,599
259686,545,456,462
259690,523,468,436
259694,500,554,497
259698,481,592,576
259702,505,542,513
259706,511,424,480
259710,526,431,458
259715,495,533,532
259719,476,537,605
259722,519,443,554
259726,536,405,439
259730,523,495,431
259734,480,608,535
259738,471,566,605
259742,526,451,531
259746,536,444,414
259750,505,552,446
259755,461,629,547
259759,464,571,592
259763,519,431,508
259767,554,430,411
259771,520,564,456
259775,497,598,591
259778,519,496,576
259782,554,411,465
259786,547,452,410
259790,498,580,484
259794,475,613,601
259799,510,495,587
259803,541,399,469
259807,530,466,442
259811,486,587,553
259815,485,559,605
259819,517,429,550
259823,530,389,442
259827,498,497,440
259831,462,610,522
259834,485,584,584
259838,525,479,516
259843,539,432,431
259847,504,535,458
259851,462,602,575
259855,483,516,599
259859,538,421,484
259863,543,459,408
259867,501,573,473
259871,473,611,562
259875,499,528,545
259879,534,436,469
259884,524,475,427
259888,487,565,528
259891,477,562,619
259895,511,483,532
259899,539,438,416
259903,516,494,429
259907,477,577,536
259911,479,538,611
259915,520,418,551
259919,539,384,441
259923,508,495,435
259928,474,591,545
259932,485,533,600
259936,525,421,506
259940,534,430,413
259944,498,560,433
259947,471,638,552
259951,491,565,573
259955,529,442,483
259959,527,438,425
259963,485,544,496
259968,464,572,606
259972,497,474,578
259976,530,411,449
259980,513,489,407
259984,476,589,527
259988,475,568,614
259992,508,450,557
259996,537,404,437
260000,510,501,418
260003,472,605,527
260007,479,565,600
260012,520,442,525
260016,535,424,421
260020,501,537,435
260024,472,616,550
260028,492,553,592
260032,533,438,512
260036,536,449,400
260040,496,568,443
260044,474,617,555
260048,502,508,572
260052,536,398,470
260057,524,446,409
260060,484,585,470
260064,474,614,575
260068,510,478,567
260072,542,386,458
260076,524,465,418
260080,485,581,518
260084,479,555,604
260088,520,438,543
260092,543,408,439
260097,520,511,430
260101,486,597,533
260105,496,536,592
260109,536,417,508
260113,546,419,404
260116,510,543,437
260119,480,607,561
260123,502,513,583
260127,540,403,480
260131,535,438,404
260135,499,565,469
260140,482,600,579
260144,513,494,570
260148,547,404,460
260152,531,466,411
260156,487,585,501
260160,480,585,593
260164,520,468,546
260168,546,412,433
260171,521,496,423
260174,483,596,532
260178,487,555,600
260183,530,434,526
260187,548,409,409
260191,516,515,423
260195,480,598,537
260199,496,537,583
260203,538,427,494
260207,544,438,404
260211,507,554,450
260215,482,606,567
260219,507,517,579
260224,542,420,472
260228,538,463,403
260231,495,584,478
260235,478,605,583
260239,513,495,565
260243,548,417,449
260247,528,487,407
260251,487,603,502
260255,483,589,594
260259,521,466,545
260263,544,416,434
260268,517,512,426
260272,481,613,534
260276,487,568,591
260280,530,447,515
260284,543,432,415
260287,504,542,440
260291,475,615,554
260295,498,545,588
260299,539,436,489
260303,538,457,407
260307,494,573,465
260312,472,614,576
260316,502,519,577
260320,534,429,467
260324,519,481,408
260328,484,596,490
260332,475,601,580
260336,511,492,551
260340,542,429,446
260343,521,506,411
260347,481,611,507
260352,479,586,578
260356,519,469,528
260360,539,433,429
260364,508,529,431
260368,474,610,536
260372,489,551,585
260376,529,436,502
260380,538,434,402
260384,502,546,434
260388,475,602,549
260392,496,520,572
260397,536,420,469
260400,532,452,392
260404,488,567,455
260408,472,594,551
260412,504,494,552
260416,539,413,442
260420,524,473,392
260424,482,580,479
260428,476,575,587
260432,515,464,547
260436,543,412,429
260441,517,495,407
260445,477,591,509
260449,482,553,583
260453,524,434,517
260456,541,410,409
260460,508,514,422
260464,472,591,536
260468,490,528,582
260472,530,420,490
260476,535,430,399
260481,493,539,447
260485,469,588,566
260489,499,506,576
260493,538,413,464
260497,531,456,399
260501,490,570,480
260505,476,583,585
260509,510,478,562
260512,539,406,447
260516,519,474,410
260520,476,585,513
260525,475,573,603
260529,516,463,551
260533,541,417,435
260537,512,505,436
260541,474,598,544
260545,480,552,604
260549,521,437,529
260553,533,426,433
260557,502,535,463
260561,473,602,574
260566,489,524,602
260569,531,418,502
260573,534,443,420
260577,493,557,476
260581,468,592,590
260585,497,497,592
260589,536,411,487
260593,527,467,420
260597,483,579,498
260601,472,583,597
260605,508,478,575
260610,537,419,455
260614,517,495,424
260618,475,596,528
260622,476,567,606
260625,517,451,545
260629,540,418,438
260633,509,516,448
260637,473,599,560
260641,483,542,614
260645,526,434,530
260649,534,438,425
260654,497,550,472
260658,466,605,584
260662,494,518,594
260666,535,415,490
260670,531,450,420
260674,489,567,488
260678,469,595,594
260681,505,494,580
260685,540,414,466
260689,524,476,428
260694,482,589,521
260698,475,583,608
260702,514,472,565
260706,540,424,450
260710,515,509,437
260714,478,604,552
260718,484,565,615
260722,523,450,539
260726,537,430,435
260730,506,532,457
260734,472,609,576
260738,488,543,615
260742,531,436,516
260746,535,450,432
260750,494,562,486
260754,468,602,595
260758,499,510,597
260762,535,420,487
260766,527,465,434
260770,487,580,509
260774,473,594,610
260779,507,492,587
260783,537,421,471
260787,522,490,435
260791,483,592,529
260794,480,572,614
260798,517,457,555
260802,541,421,444
260806,515,517,448
260810,477,605,563
260814,487,556,620
260818,527,445,537
260823,538,438,439
260827,502,543,470
260831,470,607,586
260835,488,530,604
260839,534,429,503
260843,535,453,429
260847,494,563,490
260850,474,596,597
260854,503,499,592
260858,539,412,478
260862,524,467,426
260867,483,578,512
260871,474,579,608
260875,509,472,568
260879,538,415,454
260883,514,494,432
260887,475,597,537
260891,478,568,609
260895,522,453,546
260899,540,425,442
260903,508,526,454
260907,473,605,560
260911,486,544,607
260915,527,435,518
260919,534,441,424
260923,495,550,469
260927,468,603,583
260931,494,522,598
260935,536,428,494
260939,533,466,423
260943,490,581,493
260947,475,599,601
260952,507,494,583
260956,541,416,468
260960,522,481,426
260963,481,589,516
260967,479,577,605
260971,515,466,556
260975,541,417,436
260979,516,504,427
260983,477,598,542
260987,482,554,609
260992,524,441,535
260996,541,428,432
261000,507,536,452
261004,472,609,568
261008,490,539,607
261012,531,431,507
261016,534,448,419
261019,495,559,473
261022,471,598,588
261026,496,509,598
261030,534,421,485
261035,529,467,423
261039,488,581,503
261043,476,590,604
261047,509,483,577
261051,538,420,461
261055,518,495,427
261059,478,599,525
261063,477,575,605
261067,514,463,551
261071,538,430,438
261074,508,521,429
261078,473,604,543
261082,481,553,603
261086,518,445,518
261090,535,440,423
261094,500,546,455
261098,473,606,573
261102,493,531,604
261106,533,432,499
261110,530,460,419
261114,490,570,482
261118,471,598,592
261123,499,501,592
261127,532,421,479
261130,522,478,426
261134,482,586,515
261138,474,582,610
261142,509,473,572
261146,534,421,455
261150,516,501,431
261154,479,597,538
261158,481,564,609
261163,520,455,544
261167,539,430,434
261171,508,525,449
261175,474,602,560
261179,489,540,605
261183,529,433,514
261186,535,444,421
261189,496,556,464
261193,470,605,582
261197,494,520,596
261201,534,424,491
261206,529,466,421
261210,489,577,488
261214,475,596,594
261218,507,494,576
261222,539,419,455
261226,522,487,415
261230,481,593,518
261234,477,576,604
261238,516,464,550
261242,541,422,432
261245,514,513,427
261250,477,606,541
261254,483,560,604
261258,524,446,524
261262,538,434,427
261266,506,537,449
261270,472,605,564
261274,490,535,602
261278,532,432,502
261282,533,452,416
261286,492,564,471
261291,469,601,583
261295,499,510,587
261299,536,422,479
261302,527,474,424
261306,486,582,507
261310,473,586,602
261314,508,479,569
261318,537,414,451
261322,517,488,426
261326,477,589,526
261330,480,560,606
261335,519,449,544
261339,540,419,431
261343,511,512,433
261347,473,595,545
261351,486,538,603
261355,526,427,519
261358,536,424,417
261362,502,532,454
261366,476,590,571
261370,497,516,593
261374,532,423,487
261379,532,450,415
261383,491,562,478
261387,471,591,585
261391,499,494,572
261395,537,416,456
261399,525,477,411
261403,486,589,502
261407,479,582,600
261411,516,473,568
261414,541,422,444
261419,516,507,424
261423,478,602,536
261427,483,565,606
261431,523,449,527
261435,538,425,419
261439,506,526,434
261443,472,599,551
261447,489,534,594
261451,531,427,501
261455,537,436,412
261459,499,545,460
261464,472,592,573
261468,497,507,582
261471,533,416,477
261475,528,461,417
261479,490,575,499
261483,474,592,603
261487,508,489,572
261491,541,418,461
261495,524,487,427
261499,484,594,522
261504,480,575,606
261508,516,460,554
261512,542,418,441
261516,511,507,440
261520,475,596,551
261524,480,546,604
261527,522,433,521
261531,539,422,420
261535,504,529,451
261539,473,595,566
261543,492,523,594
261548,530,421,495
261552,531,444,413
261556,491,560,472
261560,470,595,580
261564,499,502,578
261568,536,417,468
261572,525,470,413
261576,484,581,499
261580,476,586,594
261583,510,481,560
261587,538,419,445
261592,517,494,420
261596,480,592,525
261600,479,566,602
261604,520,455,539
261608,541,427,431
261612,510,522,441
261616,472,603,558
261620,485,543,608
261624,526,432,516
261628,535,433,421
261633,501,543,463
261637,471,599,580
261640,493,518,599
261644,536,422,494
261648,533,458,424
261652,493,572,490
261656,474,595,592
261660,507,495,579
261664,542,422,468
261668,526,486,425
261672,485,592,516
261677,480,585,609
261681,516,476,562
261685,543,425,452
261689,517,510,443
261693,479,603,543
261696,486,562,609
261700,527,451,536
261704,544,433,432
261708,505,536,453
261712,475,607,566
261716,493,538,608
261721,532,430,506
261725,538,441,415
261729,498,553,464
261733,472,597,578
261737,496,509,584
261741,534,418,479
261745,529,464,420
261749,488,574,485
261752,470,583,585
261756,508,475,560
261761,545,409,451
261765,525,484,419
261769,483,591,518
261773,480,572,601
261777,516,462,547
261781,541,423,438
261785,515,515,441
261789,478,604,549
261793,486,549,605
261797,526,434,523
261801,537,429,430
261806,503,539,460
261809,472,602,572
261813,490,527,600
261817,530,427,498
261821,532,450,420
261825,494,557,476
261829,470,587,586
261833,500,494,578
261837,539,414,465
261841,529,469,414
261846,484,581,503
261850,473,583,599
261854,511,478,564
261858,541,420,451
261862,517,500,430
261865,478,599,531
261869,481,566,605
261873,518,454,543
261877,537,426,426
261881,506,524,438
261885,470,602,554
261890,484,539,604
261894,530,432,512
261898,537,438,419
261902,501,547,460
261906,473,597,574
261910,496,512,593
261914,534,415,484
261918,530,453,414
261921,490,567,486
261925,473,588,594
261929,505,489,571
261934,540,416,450
261938,523,481,410
261942,480,588,507
261946,478,574,595
261950,519,464,549
261954,543,419,435
261958,515,506,422
261962,478,598,533
261966,481,557,598
261970,523,442,524
261975,536,429,423
261978,503,532,446
261982,472,599,562
261986,492,527,594
261990,536,421,499
261994,539,438,416
261998,497,550,472
262002,475,592,587
262006,501,504,594
262010,538,416,474
262014,527,463,409
262019,488,573,490
262023,478,581,592
262027,510,477,567
262031,537,412,454
262034,523,485,423
262038,484,589,523
262042,481,569,605
262046,519,457,541
262050,540,422,428
262054,512,515,429
262059,476,597,543
262063,485,545,595
262067,527,435,517
262071,539,435,423
262075,503,543,458
262079,473,599,574
262083,493,522,594
262087,531,422,490
262090,530,450,412
262094,491,559,476
262098,471,586,585
262103,503,489,575
262107,538,410,461
262111,527,468,413
262115,487,578,505
262119,475,576,596
262123,512,470,553
262127,541,416,437
262131,518,494,424
262135,479,591,534
262139,479,557,600
262144,522,445,530
262147,542,423,421
262151,512,524,434
262155,478,601,549
262159,490,539,594
262163,531,430,505
262167,538,439,417
262171,500,546,460
262175,472,593,575
262179,497,508,590
262183,538,416,485
262188,532,459,418
262192,494,570,490
262196,476,583,592
262200,506,479,570
262203,541,406,453
262207,523,477,421
262211,480,583,520
262215,479,569,604
262219,518,462,552
262223,539,418,436
262227,513,502,427
262232,477,586,533
262236,486,541,595
262240,526,432,519
262244,540,422,419
262248,508,528,448
262252,474,596,567
262256,491,525,598
262259,533,422,498
262263,534,442,417
262267,495,550,476
262272,476,587,585
262276,504,503,589
262280,539,419,478
262284,527,468,414
262288,486,576,494
262292,475,582,599
262296,509,474,564
262300,536,413,448
262304,518,489,423
262308,480,590,524
262312,480,560,596
262316,522,446,532
262320,543,417,425
262324,513,513,431
262328,477,594,546
262332,489,540,595
262336,529,433,506
262340,533,431,413
262344,500,537,453
262348,472,594,568
262352,497,514,591
262356,536,422,489
262361,533,457,414
262365,493,568,477
262369,474,591,582
262372,503,493,570
262376,538,415,456
262380,525,474,412
262384,485,582,505
262388,477,575,598
262392,514,469,556
262396,542,418,440
262401,515,499,423
262405,477,590,533
262409,482,552,598
262413,524,443,524
262417,542,425,418
262421,509,524,437
262425,476,597,554
262428,492,533,593
262432,534,428,503
262436,538,442,419
262440,499,552,468
262445,470,598,580
262449,495,513,586
262453,534,422,478
262457,528,468,418
262461,489,580,494
262465,475,590,590
262469,509,486,567
262473,540,418,452
262477,524,485,416
262481,484,588,514
262484,481,570,597
262489,519,457,543
262493,543,415,431
262497,515,505,425
262501,478,594,536
262505,486,545,594
262509,525,435,511
262513,540,427,412
262517,506,532,445
262521,474,597,562
262525,494,524,590
262530,533,423,487
262534,534,450,403
262538,492,564,467
262541,470,599,585
262545,500,503,580
262549,540,418,462
262553,528,470,410
262557,485,580,501
262561,475,582,597
262565,509,478,563
262569,541,421,447
262574,520,497,427
262578,481,594,531
262582,482,563,604
262586,523,451,536
262590,543,420,428
262594,511,517,440
262597,476,596,554
262600,488,539,601
262604,533,433,511
262608,539,438,419
262612,498,546,459
262617,468,599,576
262621,494,519,599
262625,539,426,487
262629,536,459,408
262633,496,572,486
262637,476,595,585
262641,508,492,567
262645,542,414,455
262649,528,477,413
262653,489,583,508
262657,482,574,601
262661,520,465,556
262665,541,418,440
262669,514,504,434
262673,478,599,543
262677,477,558,603
262681,513,445,530
262685,539,428,423
262689,511,527,442
262693,478,593,557
262697,496,526,592
262702,535,425,498
262706,538,442,415
262710,499,549,465
262713,476,591,577
262717,504,506,585
262721,538,420,472
262725,530,463,416
262729,488,572,497
262733,474,584,597
262737,511,482,571
262742,540,416,459
262746,518,492,426
262750,477,596,521
262754,477,574,602
262758,517,463,545
262762,539,428,435
262766,510,517,439
262769,470,601,550
262773,483,549,602
262777,527,436,517
262781,538,432,419
262786,502,540,454
262790,468,601,569
262794,493,527,596
262798,535,425,489
262802,534,448,414
262806,494,560,482
262810,472,591,588
262814,501,499,580
262818,533,418,467
262822,524,469,414
262825,487,576,502
262830,477,577,596
262834,513,473,558
262838,543,417,445
262842,520,495,429
262846,480,593,530
262850,484,561,600
262854,521,446,533
262858,539,420,429
262862,506,518,442
262866,472,598,559
262871,488,538,600
262875,532,427,509
262879,537,433,410
262882,496,540,456
262886,470,588,570
262890,499,505,584
262894,537,413,479
262898,529,453,411
262902,489,565,484
262906,472,587,588
262910,504,489,571
262915,541,417,456
262919,527,480,419
262923,481,588,517
262927,476,576,606
262931,518,466,557
262935,543,421,442
262938,516,509,436
262942,477,601,542
262946,484,557,601
262950,527,443,524
262955,543,427,426
262959,507,530,453
262963,471,600,570
262967,489,529,598
262971,536,420,501
262975,538,437,416
262979,497,548,468
262983,474,587,578
262987,502,497,578
262991,539,410,467
262994,530,459,408
262999,485,572,492
263003,473,579,592
263007,513,474,563
263011,546,411,448
263015,521,485,417
263019,477,589,516
263023,479,564,595
263027,519,455,536
263031,540,421,428
263035,512,516,435
263040,479,601,551
263044,488,548,603
263048,532,437,516
263051,543,434,420
263055,505,538,457
263059,474,596,570
263063,498,519,591
263067,535,419,485
263071,531,449,415
263075,487,562,479
263079,467,591,588
263084,505,496,574
263088,542,417,459
263092,529,472,411
263096,484,581,503
263100,479,577,595
263104,518,468,554
263107,543,416,439
263111,515,502,422
263115,477,599,535
263119,484,563,603
263123,523,449,532
263128,541,427,429
263132,511,526,443
263136,476,600,558
263140,488,537,596
263144,531,428,505
263148,537,438,419
263152,496,550,468
263156,471,601,582
263160,501,514,592
263163,541,420,483
263168,534,460,417
263172,492,575,488
263176,475,593,589
263180,505,494,566
263184,533,424,449
263188,520,484,413
263192,485,584,519
263196,481,571,599
263200,519,463,539
263204,544,422,432
263208,514,505,426
263213,475,591,538
263217,482,549,602
263220,527,445,523
263224,542,431,420
263228,509,530,446
263232,475,596,563
263236,493,528,591
263240,532,423,493
263244,534,443,417
263248,498,551,475
263252,476,591,586
263257,504,502,585
263261,535,420,472
263265,526,466,415
263269,484,572,496
263273,473,577,593
263276,508,474,559
263280,539,415,443
263284,519,488,416
263288,480,587,523
263292,480,563,603
263297,518,458,537
263301,535,430,430
263305,507,522,440
263309,474,602,549
263313,487,547,599
263317,530,440,514
263321,542,439,422
263325,505,542,458
263329,477,595,572
263332,498,517,592
263336,532,419,487
263341,532,450,415
263345,493,561,485
263349,476,590,592
263353,507,497,575
263357,541,421,459
263361,528,476,416
263365,486,581,509
263369,477,575,599
263373,513,467,552
263377,535,415,438
263382,512,497,427
263386,476,588,530
263389,484,553,600
263393,527,446,526
263397,544,428,419
263401,510,524,440
263405,474,594,556
263409,487,531,594
263413,526,428,500
263417,533,441,417
263421,497,546,469
263426,473,589,582
263430,494,503,590
263434,532,415,480
263438,530,456,418
263442,489,569,495
263445,475,585,596
263449,508,484,570
263453,540,416,455
263457,521,486,423
263461,483,586,520
263465,479,564,599
263470,516,455,540
263474,541,416,431
263478,515,508,432
263482,475,599,544
263486,484,551,600
263490,527,440,520
263494,536,433,418
263498,497,537,449
263501,470,600,565
263505,491,527,590
263510,534,426,493
263514,534,451,419
263518,493,565,481
263522,470,599,593
263526,499,506,582
263530,536,423,471
263534,525,478,417
263538,481,588,504
263542,474,588,597
263546,514,478,558
263550,544,417,445
263555,519,491,420
263558,477,587,523
263562,476,560,600
263566,522,454,529
263570,546,425,420
263574,515,517,435
263578,474,596,549
263582,481,536,595
263586,528,422,508
263590,543,425,419
263595,506,538,460
263599,476,592,569
263603,498,506,583
263607,535,408,481
263611,534,443,414
263614,493,559,488
263618,476,583,594
263622,506,484,578
263626,540,414,460
263630,525,478,418
263634,483,584,513
263639,476,575,604
263643,517,467,551
263647,539,416,437
263651,514,502,430
263655,476,596,535
263659,483,553,597
263663,525,439,519
263667,536,425,422
263670,502,532,446
263674,472,602,562
263678,489,536,593
263683,533,431,495
263687,539,448,413
263691,498,562,466
263695,474,603,576
263699,501,512,580
263703,538,425,472
263707,529,472,416
263711,488,582,497
263715,475,590,600
263719,512,486,569
263724,547,419,454
263727,529,489,425
263731,484,591,524
263735,481,568,601
263739,520,455,544
263743,540,419,436
263747,514,513,436
263751,479,599,547
263755,488,543,599
263759,529,432,515
263763,541,432,421
263768,504,542,463
263772,474,605,565
263776,495,525,590
263780,536,424,487
263783,533,451,407
263787,491,567,474
263791,470,597,580
263795,502,500,573
263799,539,416,462
263803,523,473,415
263808,484,582,503
263812,479,579,597
263816,514,475,555
263820,546,421,444
263824,525,499,429
263828,482,596,534
263832,483,564,604
263836,520,449,531
263839,539,423,426
263843,508,518,441
263847,474,594,552
263852,490,536,594
263856,536,432,500
263860,540,439,414
263864,502,545,460
263868,473,595,572
263872,497,511,586
263876,540,418,477
263880,533,457,409
263884,487,567,482
263888,477,587,590
263892,510,489,568
263896,542,418,454
263900,527,483,418
263904,484,582,513
263908,478,576,598
263912,516,484,550
263916,542,436,440
263920,516,500,434
263924,477,577,540
263928,485,552,601
263932,527,460,521
263937,538,438,422
263941,503,517,448
263945,471,578,560
263949,492,530,592
263952,535,442,495
263956,535,446,415
263960,495,541,476
263964,472,582,583
263968,503,510,580
263972,539,427,471
263976,529,456,417
263981,485,551,502
263985,475,569,597
263989,514,489,563
263993,542,429,444
263997,517,482,423
264001,477,570,525
264005,481,561,602
264008,522,472,539
264012,542,435,428
264016,513,505,439
264020,480,579,554
264025,491,546,596
264029,534,454,507
264033,544,445,418
264037,505,530,455
264041,476,584,566
264045,497,525,585
264049,538,442,482
264053,533,454,408
264057,494,543,479
264061,474,575,584
264065,505,501,573
264069,538,430,463
264073,525,471,416
264077,484,563,507
264081,478,567,597
264085,516,479,552
264089,541,428,441
264093,514,490,434
264097,473,574,537
264101,482,554,604
264105,524,464,529
264110,539,432,424
264114,506,508,443
264118,474,579,562
264121,491,537,601
264125,536,445,504
264129,540,445,415
264133,500,534,465
264137,470,583,577
264141,498,521,584
264145,538,437,476
264150,532,457,415
264154,487,553,490
264158,469,576,590
264162,505,494,562
264166,542,426,448
264170,525,479,424
264174,484,574,517
264177,482,568,595
264180,522,477,539
264184,539,433,432
264188,512,503,434
264193,479,582,540
264197,486,542,598
264201,528,448,519
264205,543,432,421
264209,507,520,452
264213,477,583,568
264217,496,532,599
264221,536,445,496
264225,539,452,416
264229,501,541,476
264233,477,579,591
264237,505,508,581
264241,541,434,467
264245,529,470,414
264249,485,561,497
264253,476,573,593
264257,514,488,558
264261,541,430,446
264265,516,483,426
264269,474,572,530
264273,480,562,604
264278,522,474,537
264282,542,439,427
264286,512,514,436
264290,475,588,550
264293,486,551,601
264297,528,459,512
264301,535,448,422
264305,499,530,463
264309,469,580,575
264313,493,524,595
264317,533,440,486
264322,530,455,415
264326,490,542,487
264330,475,573,591
264334,506,500,571
264338,539,433,458
264342,524,475,414
264346,486,564,509
264349,481,567,598
264353,515,485,551
264357,540,435,441
264361,512,494,428
264366,476,575,537
264370,483,553,606
264374,523,461,525
264378,542,437,422
264382,511,514,445
264386,476,582,560
264390,493,541,594
264394,535,454,497
264398,537,452,416
264402,498,539,468
264406,471,583,578
264410,500,521,588
264414,540,444,477
264418,531,470,411
264422,486,557,491
264426,474,577,592
264430,513,497,563
264434,542,433,447
264438,521,478,415
264442,478,565,514
264446,478,559,593
264451,518,469,539
264455,542,430,426
264459,510,500,427
264462,474,579,544
264466,482,550,601
264470,523,459,519
264474,540,444,422
264478,504,527,457
264482,475,585,572
264486,496,534,597
264491,539,447,494
264495,537,453,419
264499,495,540,484
264503,473,577,587
264507,500,509,582
264511,535,437,467
264515,526,471,417
264518,483,562,503
264522,474,576,594
264526,511,493,556
264530,543,436,444
264535,523,492,426
264539,483,577,526
264543,483,560,595
264547,520,470,525
264551,539,438,424
264555,511,510,442
264559,473,582,553
264563,488,549,597
264567,530,460,505
264571,538,451,411
264574,498,534,458
264579,471,584,571
264583,495,526,585
264587,533,443,481
264591,531,462,415
264595,490,551,490
264599,472,577,591
264603,505,497,572
264607,538,430,455
264611,522,474,417
264615,474,566,512
264620,472,568,597
264624,512,484,545
264628,534,436,436
264631,511,495,425
264635,478,574,537
264639,486,554,596
264643,528,464,514
264647,542,442,413
264651,504,515,440
264655,473,577,557
264659,493,534,592
264664,531,448,494
264668,538,449,412
264672,500,536,470
264676,473,581,579
264680,500,517,582
264684,538,439,472
264687,528,466,416
264691,484,556,499
264695,475,577,595
264699,508,502,563
264704,543,440,449
264708,526,485,422
264712,481,568,522
264716,478,560,603
264720,521,475,541
264724,540,440,427
264728,510,508,437
264732,472,578,548
264736,485,545,600
264740,528,454,517
264743,539,442,423
264748,500,522,459
264752,471,577,573
264756,491,524,596
264760,531,442,491
264764,532,458,419
264768,491,546,481
264772,474,579,586
264776,504,509,578
264780,537,438,462
264784,525,471,415
264788,481,562,509
264793,476,574,603
264797,514,492,556
264800,544,437,439
264804,521,492,427
264808,479,576,532
264812,482,559,603
264816,523,470,530
264820,541,442,427
264824,508,514,442
264828,474,583,555
264833,489,540,590
264837,533,451,499
264841,537,447,415
264845,498,531,463
264849,469,580,577
264853,495,525,590
264856,535,446,485
264860,532,469,419
264864,491,560,493
264868,477,580,594
264872,508,497,572
264877,539,435,461
264881,525,480,424
264885,484,570,521
264889,479,568,604
264893,516,483,552
264897,538,438,438
264901,514,498,432
264905,478,574,538
264909,484,552,600
264912,530,464,524
264916,542,443,420
264921,506,517,445
264925,476,580,561
264929,496,536,588
264933,533,448,489
264937,533,453,409
264941,493,541,467
264945,473,582,578
264949,500,516,577
264953,537,439,466
264957,527,469,416
264962,484,559,504
264966,473,576,598
264969,511,494,561
264973,542,436,450
264977,519,493,428
264981,476,580,532
264985,480,566,606
264989,525,475,541
264993,547,436,434
264997,516,507,443
265001,474,581,552
265006,485,547,600
265010,529,461,518
265014,539,451,422
265018,503,530,456
265022,474,584,567
265025,496,531,582
265029,540,449,477
265033,535,460,412
265037,493,547,481
265041,475,576,589
265046,502,501,572
265050,537,435,456
265054,522,479,415
265058,483,571,511
265062,474,576,603
265066,513,486,558
265070,539,435,446
265074,512,498,430
265078,476,578,534
265081,484,555,602
265085,524,465,530
265090,539,436,429
265094,507,509,453
265098,474,578,564
265102,488,535,596
265106,529,446,498
265110,534,445,415
265114,497,532,467
265118,473,579,580
265122,497,518,589
265126,536,434,479
265131,530,458,418
265135,487,550,499
265138,474,576,605
265142,510,499,571
265146,540,431,456
265150,521,476,423
265154,475,563,523
265158,476,560,603
265162,519,472,546
265166,540,429,438
265170,511,496,441
265175,476,575,553
265179,484,550,612
265183,522,461,524
265187,534,444,422
265191,504,521,452
265194,474,576,567
265198,489,521,592
265202,531,433,488
265206,534,443,411
265210,494,535,473
265214,472,572,584
265219,497,500,570
265223,538,423,460
265227,531,460,411
265231,490,554,497
265235,479,566,591
265239,515,482,555
265243,543,428,442
265247,521,487,426
265250,483,576,533
265254,486,562,602
265259,526,469,535
265263,543,437,422
265267,511,508,436
265271,474,579,554
265275,488,542,602
265279,530,451,512
265283,539,442,420
265287,502,525,465
265291,472,576,576
265295,494,518,589
265299,535,436,479
265304,531,455,411
265307,491,545,486
265311,472,573,589
265315,504,499,567
265319,537,434,456
265323,521,479,419
265327,479,571,507
265331,472,570,591
265335,517,480,544
265339,545,433,433
265344,517,497,424
265348,478,579,539
265352,483,552,602
265356,524,460,526
265360,539,442,426
265363,506,528,453
265367,473,591,561
265371,489,536,596
265375,531,443,501
265379,533,451,417
265383,493,546,471
265388,469,589,585
265392,495,515,591
265396,536,431,476
265400,529,463,416
265404,486,559,494
265408,473,576,593
265412,509,492,564
265416,542,433,454
265419,523,483,421
265423,478,571,522
265427,478,565,601
265432,519,475,540
265436,540,439,432
265440,510,515,436
265444,475,593,549
265448,486,555,604
265452,526,455,518
265456,537,444,423
265460,501,531,464
265464,473,587,575
265468,491,530,597
265473,534,443,495
265476,535,454,414
265480,495,545,479
265484,475,578,589
265488,504,504,580
265492,537,428,463
265496,525,469,419
265500,486,567,514
265504,472,577,603
265508,509,491,555
265512,539,436,441
265517,519,496,424
265521,478,581,531
265525,481,563,602
265529,522,472,530
265532,538,443,429
265536,507,521,447
265540,473,590,559
265544,488,545,601
265548,530,453,508
265552,535,452,426
265556,497,545,470
265561,468,595,580
265565,495,529,591
265569,535,442,485
265573,530,467,420
265577,490,562,493
265581,472,583,594
265585,505,500,567
265588,538,432,452
265592,523,477,416
265596,479,568,512
265601,475,568,594
265605,517,481,543
265609,543,436,429
265613,513,499,429
265617,474,580,541
265621,480,551,600
265625,527,456,518
265629,540,436,419
265633,505,522,452
265637,473,582,567
265641,493,532,593
265645,533,443,495
265649,535,453,420
265653,494,546,479
265657,469,583,588
265661,502,511,585
265665,540,436,474
265669,527,472,417
265673,484,565,500
265677,475,575,597
265681,509,487,562
265686,543,427,447
265690,523,487,426
265694,483,580,528
265698,482,563,601
265701,525,468,537
265705,546,430,427
265709,513,505,437
265713,475,579,547
265717,488,540,595
265721,530,450,508
265725,539,444,413
265730,500,532,455
265734,471,588,572
265738,494,528,587
265742,535,443,484
265746,533,460,409
265750,491,543,480
265754,472,570,584
265757,504,498,572
265761,540,427,465
265765,523,465,420
265769,483,555,512
265774,474,560,601
265778,512,461,553
265782,544,407,441
265786,520,475,429
265790,481,565,535
265794,481,542,598
265798,522,442,523
265802,540,420,419
265806,506,511,442
265810,473,584,557
265814,489,529,591
265818,532,432,497
265822,538,444,414
265826,498,544,468
265830,471,591,581
265834,498,519,584
265838,539,433,476
265842,529,463,416
265846,489,561,499
265850,472,578,593
265854,504,488,563
265859,537,427,451
265863,524,485,422
265867,480,581,520
265870,476,563,600
265874,516,459,542
265878,541,417,432
265882,515,495,434
265886,475,577,542
265890,483,543,595
265894,527,447,514
265899,538,432,419
265903,502,519,449
265907,473,583,565
265911,491,524,585
265915,531,434,484
265919,531,447,409
265923,491,539,477
265926,473,580,587
265930,499,504,576
265934,537,427,463
265938,528,464,417
265943,484,561,503
265947,476,572,598
265951,512,484,560
265955,541,428,446
265959,521,488,425
265963,479,576,530
265967,478,562,598
265971,516,469,531
265975,537,439,426
265979,506,513,440
265982,472,578,560
265987,486,541,599
265991,529,453,504
265995,537,449,413
265999,499,535,455
266003,473,590,566
266007,496,535,585
266011,534,451,481
266015,532,469,414
266019,489,554,481
266023,466,577,585
266028,502,499,577
266032,540,434,459
266036,525,488,421
266039,484,584,514
266043,474,584,590
266047,515,489,541
266051,545,437,429
266055,519,500,423
266059,477,580,550
266063,477,555,613
266067,520,459,519
266072,537,433,408
266076,506,505,445
266080,472,567,568
266084,489,529,602
266088,528,447,511
266092,533,454,430
266095,495,543,473
266099,469,582,583
266103,498,518,589
266107,538,436,484
266112,528,463,431
266116,480,556,507
266120,471,573,600
266124,508,488,569
266128,540,428,454
266132,522,483,437
266136,484,572,538
266140,483,563,616
266144,521,474,558
266148,544,438,447
266151,516,510,446
266156,481,583,554
266160,490,547,614
266164,531,456,527
266168,539,445,422
266172,502,530,456
266176,471,592,574
266180,495,538,595
266184,539,452,491
266188,538,465,413
266192,496,559,483
266196,473,592,589
266201,504,508,579
266205,541,437,460
266208,525,485,413
266212,484,590,501
266216,474,581,600
266220,511,475,554
266224,540,427,443
266228,517,500,431
266232,476,591,527
266236,478,580,599
266241,520,475,525
266245,538,426,444
266249,506,487,454
266253,471,544,556
266257,487,512,599
266261,530,448,507
266264,536,453,412
266268,497,538,450
266272,473,586,582
266276,502,535,588
266280,540,464,466
266285,533,467,406
266289,488,553,450
266293,473,583,564
266297,506,516,551
266301,538,458,428
266305,527,505,384
266309,484,587,492
266313,479,623,571
266317,517,543,561
266320,542,467,444
266324,514,481,439
266329,476,570,511
266333,483,562,571
266337,527,444,571
266341,538,406,513
266345,506,477,524
266349,474,576,582
266353,496,595,554
266357,536,499,478
266361,537,436,449
266365,496,517,483
266370,477,589,598
266374,505,545,594
266377,541,466,495
266381,526,472,451
266385,487,569,526
266389,476,608,588
266393,512,529,558
266397,542,421,490
266401,523,439,450
266405,477,536,496
266409,473,591,559
266414,519,590,469
266418,533,511,422
266422,491,488,486
266426,452,524,596
266430,467,551,576
266433,523,539,459
266436,540,504,386
266440,500,506,428
266444,474,516,558
266448,500,472,627
266452,541,403,528
266457,536,435,450
266461,486,577,476
266465,453,659,543
266469,469,571,523
266473,499,413,497
266477,500,422,429
266481,460,575,490
266485,437,593,573
266488,497,593,455
266491,540,590,415
266496,494,516,510
266500,447,526,607
266504,451,468,675
266508,493,353,601
266512,534,370,428
266516,486,519,401
266520,445,566,558
266524,468,515,591
266528,516,424,527
266532,550,428,449
266536,518,586,443
266541,499,647,578
266545,507,519,589
266548,510,408,480
266552,520,430,449
266556,483,553,494
266560,476,560,591
266564,463,509,540
266568,498,427,465
266572,528,449,465
266576,506,535,544
266580,494,537,605
266585,508,475,543
266589,499,499,366
266593,483,557,460
266597,490,610,592
266601,495,544,652
266604,567,425,568
266608,597,421,451
266612,520,536,430
266616,435,732,467
266620,430,594,610
266625,548,369,523
266629,565,339,468
266633,535,474,463
266637,468,635,554
266641,477,541,640
266645,489,384,515
266649,529,407,468
266653,561,528,521
266657,518,557,611
266660,541,593,479
266664,573,519,480
266669,550,443,497
266673,457,495,559
266677,482,513,615
266681,607,429,599
266685,604,387,458
266689,511,497,432
266693,406,725,501
266697,409,726,539
266701,512,574,465
266705,541,392,481
266710,566,370,555
266714,543,502,605
266717,538,437,629
266721,505,328,519
266725,513,390,432
266729,528,550,516
266733,529,563,625
266737,540,507,541
266741,522,506,402
266745,461,533,405
266749,516,545,580
266754,541,485,654
266758,542,419,587
266762,555,488,430
266766,509,629,358
266770,542,679,472
266773,550,511,626
266777,570,350,575
266781,582,321,478
266785,524,440,458
266789,470,575,577
266793,489,533,632
266798,511,449,453
266802,541,455,420
266806,520,509,461
266810,459,569,580
266814,461,518,611
266818,456,490,475
266822,573,627,435
266826,552,585,553
266829,521,455,637
266833,527,411,557
266838,516,472,360
266842,529,498,422
266846,469,483,576
266850,481,434,645
266854,580,378,568
266858,588,443,408
266862,552,552,404
266866,529,583,550
266870,514,578,555
266874,531,465,508
266878,505,407,456
266883,484,488,471
266886,460,539,588
266890,493,496,611
266894,515,467,452
266898,516,541,401
266902,472,597,468
266906,411,547,614
266910,493,401,630
266914,553,353,494
266918,565,461,411
266923,512,692,414
266927,457,674,567
266931,540,425,614
266935,595,306,478
266939,551,393,457
266942,493,548,523
266946,507,600,572
266950,550,516,520
266954,538,450,425
266958,542,444,454
266962,500,533,566
266967,458,578,577
266971,534,503,470
266975,571,469,393
266979,508,580,450
266983,437,590,632
266987,453,481,635
266991,526,357,535
266995,503,430,401
266998,472,595,427
267002,500,641,538
267006,513,456,631
267011,547,361,494
267015,552,417,445
267019,493,499,553
267023,488,516,628
267027,511,480,518
267031,544,507,382
267035,519,572,380
267039,468,837,386
267043,493,662,614
267047,531,334,608
267052,532,243,477
267055,509,370,468
267059,476,488,597
267063,474,528,609
267067,494,438,519
267071,514,461,370
267075,483,564,455
267079,460,583,620
267083,512,519,601
267087,571,437,465
267091,538,415,406
267096,468,550,442
267100,462,760,434
267104,518,662,555
267108,563,368,521
267111,538,319,483
267115,469,447,514
267119,487,576,545
267123,533,505,579
267127,557,407,466
267131,517,488,449
267136,421,556,544
267140,449,503,621
267144,527,452,496
267148,514,413,400
267152,501,516,408
267156,498,566,613
267160,477,489,601
267164,484,392,493
267167,522,481,407
267171,509,582,455
267175,484,629,539
267180,487,652,477
267184,517,465,448
267188,539,404,452
267192,497,480,520
267196,456,510,617
267200,501,475,525
267204,554,412,469
267208,540,443,458
267212,486,570,527
267216,468,687,535
267220,529,691,453
267224,547,434,469
267228,481,385,504
267232,448,429,597
267236,472,431,593
267240,523,502,422
267244,504,595,364
267248,440,506,496
267252,473,462,579
267256,536,430,571
267260,575,385,465
267265,537,414,418
267269,463,557,451
267273,470,643,533
267277,534,560,570
267280,547,428,456
267284,528,497,398
267288,487,618,489
267292,494,639,591
267296,531,481,521
267300,532,393,419
267304,478,405,465
267309,462,486,570
267313,499,467,636
267317,535,435,512
267321,537,536,367
267325,485,595,435
267329,434,538,603
267333,462,443,613
267336,535,403,477
267339,534,534,330
267343,483,642,447
267347,460,556,612
267352,520,479,559
267356,549,414,459
267360,528,435,439
267364,495,568,456
267368,484,687,492
267372,520,616,535
267376,541,382,528
267380,540,366,474
267384,476,507,519
267388,472,619,561
267392,537,636,489
267395,554,487,463
267399,514,423,482
267403,478,498,566
267407,461,508,583
267411,503,401,508
267415,527,376,418
267419,460,503,434
267423,436,624,591
267427,500,613,575
267431,560,464,491
267436,542,426,392
267440,503,546,420
267444,490,682,465
267448,500,635,477
267452,533,548,451
267456,530,446,493
267460,487,406,581
267464,500,401,646
267468,529,405,560
267472,550,443,439
267476,523,490,403
267481,472,574,502
267485,462,545,619
267489,510,462,545
267493,543,480,441
267497,510,597,424
267501,463,640,547
267504,475,468,638
267508,491,371,465
267512,507,466,390
267516,479,567,474
267521,467,627,555
267525,492,558,567
267529,558,379,490
267533,540,383,404
267537,500,521,447
267541,466,579,594
267545,495,509,599
267549,535,436,445
267553,531,564,332
267557,489,706,409
267560,483,600,614
267564,492,374,615
267568,521,313,507
267572,528,451,447
267576,492,576,552
267580,453,560,583
267584,502,420,521
267588,502,440,420
267592,472,558,399
267596,491,628,528
267600,536,593,556
267604,601,442,513
267609,580,408,439
267613,504,540,467
267616,479,647,565
267619,502,615,559
267623,532,404,516
267627,531,375,456
267631,488,529,496
267635,454,572,591
267639,489,488,537
267643,530,461,429
267648,518,469,416
267652,479,537,528
267656,488,524,608
267660,520,454,541
267664,513,433,413
267668,497,580,404
267672,479,698,547
267675,482,548,612
267679,498,393,517
267683,543,465,368
267687,519,577,461
267692,480,579,612
267696,504,520,559
267700,544,398,503
267704,532,439,398
267708,497,649,401
267712,481,734,521
267716,514,529,628
267720,558,323,538
267724,545,362,432
267728,488,687,413
267731,480,766,529
267736,502,453,614
267740,496,287,477
267744,469,354,476
267748,449,502,567
267752,467,572,557
267756,520,482,531
267760,551,447,426
267764,504,652,318
267768,455,745,524
267772,492,586,647
267777,530,345,609
267781,533,331,455
267785,518,524,431
267788,486,660,551
267792,522,485,646
267796,557,347,529
267800,544,458,395
267804,496,857,300
267808,481,710,590
267812,515,368,633
267816,532,256,495
267821,495,359,435
267825,463,527,490
267829,461,555,611
267833,502,459,555
267837,524,447,396
267840,501,565,383
267843,478,642,525
267847,477,676,551
267851,508,455,565
267855,541,371,437
267859,521,509,455
267864,472,601,575
267868,482,518,605
267872,535,444,488
267876,552,507,381
267880,505,557,505
267884,481,560,555
267888,521,529,548
267892,560,433,485
267896,541,419,420
267899,485,552,505
267904,481,549,609
267908,516,472,532
267912,529,456,413
267916,509,525,413
267920,478,585,546
267924,474,588,594
267928,484,550,506
267932,520,451,443
267936,522,454,472
267940,469,526,588
267944,466,545,563
267949,535,540,444
267953,544,443,414
267956,516,475,472
267960,485,582,544
267964,475,574,548
267968,521,522,445
267972,540,448,443
267976,478,482,522
267980,490,535,602
267984,535,502,542
267988,554,497,400
267993,520,527,427
267997,482,537,570
268001,459,513,625
268005,503,456,546
268009,551,439,415
268012,521,516,432
268016,472,601,547
268020,478,550,626
268024,517,451,527
268028,524,461,412
268033,503,577,432
268037,467,635,567
268041,483,547,572
268045,536,435,464
268049,554,475,363
268053,516,600,465
268057,492,561,614
268061,500,477,589
268065,543,408,486
268068,539,427,442
268072,500,531,482
268077,467,559,595
268081,483,492,554
268085,542,533,429
268089,532,621,392
268093,469,656,496
268097,470,521,596
268101,527,376,561
268105,548,343,476
268109,503,463,459
268113,461,607,531
268118,468,602,588
268122,533,447,500
268125,561,438,397
268129,509,605,423
268133,477,678,550
268137,483,530,609
268141,541,374,525
268145,536,421,401
268149,501,559,447
268153,489,654,562
268157,514,550,597
268162,554,383,494
268166,542,413,423
268170,485,562,461
268174,467,627,585
268178,485,559,540
268181,518,474,455
268185,522,468,457
268189,483,580,518
268193,488,519,628
268197,526,426,488
268201,533,422,397
268206,487,487,469
268210,451,619,533
268214,493,564,613
268218,542,428,532
268222,532,407,438
268226,497,512,477
268230,488,607,549
268234,505,590,531
268237,535,522,455
268241,521,503,397
268246,493,568,482
268250,489,550,605
268254,525,482,592
268258,546,479,461
268262,503,525,421
268266,456,650,461
268270,465,541,593
268274,523,377,570
268278,563,343,465
268282,522,467,429
268286,477,609,527
268291,469,528,611
268294,501,407,523
268298,513,418,418
268302,500,542,456
268306,477,616,538
268310,494,620,517
268314,540,496,504
268318,547,455,476
268322,498,511,516
268326,467,556,586
268331,485,541,562
268335,528,502,443
268339,523,576,338
268343,486,593,520
268347,483,515,632
268350,537,402,583
268354,564,391,454
268358,542,532,369
268362,482,661,511
268366,473,549,649
268370,493,426,552
268375,532,418,395
268379,507,502,445
268383,456,599,553
268387,480,580,611
268391,527,445,507
268395,530,444,411
268399,498,564,434
268403,476,611,572
268406,498,498,598
268410,539,413,475
268414,534,497,416
268419,495,584,493
268423,486,551,599
268427,504,457,587
268431,520,408,446
268435,504,488,357
268439,481,581,500
268443,507,573,613
268447,538,489,512
268451,547,455,428
268455,511,525,439
268460,464,673,505
268463,467,634,600
268467,516,431,584
268471,549,379,447
268475,520,491,465
268479,470,572,591
268483,499,557,548
268487,553,483,440
268491,558,492,417
268495,491,574,460
268499,436,555,624
268504,475,466,607
268508,541,402,438
268512,542,464,399
268515,489,587,501
268518,476,595,598
268522,523,539,533
268526,558,474,444
268530,532,500,448
268534,463,584,547
268538,446,530,610
268542,461,492,510
268547,540,532,428
268551,546,538,446
268555,508,621,474
268559,511,570,598
268563,547,400,593
268567,549,347,490
268570,498,447,474
268573,469,526,545
268577,494,522,578
268581,529,465,468
268585,493,485,384
268590,445,581,484
268594,451,601,594
268598,530,567,546
268602,581,573,422
268606,560,546,411
268610,494,537,540
268614,467,494,664
268618,495,417,547
268622,519,408,442
268625,524,487,448
268628,505,550,546
268633,492,554,605
268637,516,488,532
268641,537,544,388
268645,516,590,447
268649,469,564,580
268653,474,493,609
268657,518,436,475
268661,541,459,401
268665,503,521,477
268669,472,557,561
268674,508,540,568
268678,551,446,492
268681,547,480,358
268684,502,634,480
268688,484,633,624
268692,514,508,604
268696,543,377,479
268700,516,435,404
268704,450,539,520
268708,461,600,593
268712,515,546,535
268717,552,435,451
268721,513,437,441
268725,464,521,553
268729,469,577,561
268733,514,507,516
268736,509,433,420
268739,507,496,430
268743,467,590,565
268747,496,565,613
268751,538,503,453
268755,548,494,410
268760,500,527,500
268764,470,527,617
268768,530,487,611
268772,555,431,457
268776,519,521,390
268780,486,610,501
268784,481,552,619
268788,512,426,585
268791,537,368,443
268795,514,455,401
268800,482,690,436
268804,483,630,626
268808,528,434,591
268812,542,377,457
268816,516,508,423
268820,490,609,546
268824,494,578,570
268828,524,522,460
268832,533,534,421
268836,503,531,504
268840,493,525,600
268845,520,471,646
268848,544,430,468
268852,526,490,392
268856,489,544,523
268860,451,539,619
268864,480,481,548
268868,528,458,427
268872,542,492,422
268876,504,560,519
268880,480,611,561
268884,518,515,531
268889,556,397,422
268893,521,460,438
268897,479,578,526
268901,468,580,599
268904,520,466,541
268907,559,396,461
268911,528,495,457
268915,484,581,570
268919,483,572,595
268923,526,501,485
268928,516,455,411
268932,477,560,479
268936,489,648,532
268940,513,509,596
268944,537,371,487
268948,539,414,403
268952,494,552,468
268956,475,687,537
268960,513,546,594
268963,547,381,470
268967,530,428,437
268972,468,574,506
268976,456,569,606
268980,516,483,525
268984,553,441,400
268988,530,532,414
268992,485,575,613
268996,493,521,624
269000,526,438,501
269004,530,446,432
269008,485,552,451
269012,463,601,586
269017,501,523,619
269020,548,460,509
269024,545,532,420
269028,489,586,462
269032,457,537,589
269036,509,438,549
269040,550,370,455
269044,537,442,411
269048,505,613,488
269052,488,636,616
269057,517,489,556
269061,530,406,432
269065,508,455,415
269069,460,604,537
269073,464,636,599
269076,518,454,538
269080,538,374,422
269084,503,463,460
269088,479,567,553
269092,487,540,621
269096,547,475,506
269101,554,491,415
269105,520,526,473
269109,467,591,578
269113,489,535,634
269117,531,416,492
269121,535,432,414
269125,496,536,483
269129,479,579,588
269132,517,493,558
269136,539,476,402
269140,526,529,394
269145,487,591,522
269149,496,593,576
269153,517,475,574
269157,537,383,481
269161,525,469,419
269165,497,609,501
269169,491,574,603
269173,526,501,517
269177,507,497,428
269181,461,493,500
269186,482,540,566
269189,512,524,585
269193,545,453,503
269197,554,421,433
269201,518,504,472
269205,483,571,583
269209,500,535,571
269213,529,469,433
269217,535,526,400
269221,493,582,528
269225,485,552,621
269230,510,472,552
269234,543,418,425
269238,511,506,406
269242,465,644,532
269245,483,631,568
269249,527,453,555
269253,556,397,440
269257,518,524,430
269261,474,564,582
269265,466,571,602
269270,497,479,494
269274,526,402,429
269278,508,508,459
269282,491,598,543
269286,515,588,573
269290,545,465,499
269294,537,408,443
269298,482,494,511
269301,454,553,616
269305,493,526,571
269309,536,464,442
269314,523,494,421
269318,484,562,513
269322,478,538,601
269326,531,460,574
269330,554,465,407
269334,515,542,438
269338,451,589,551
269342,455,534,601
269346,508,447,528
269350,530,412,419
269355,527,523,426
269358,491,647,551
269362,496,577,607
269366,530,406,520
269370,534,413,417
269374,474,551,473
269378,469,583,609
269382,498,500,603
269386,543,403,491
269390,533,452,402
269394,488,557,506
269399,469,576,609
269403,517,505,556
269407,539,439,419
269411,520,505,405
269414,495,593,532
269418,480,573,621
269422,526,500,548
269426,556,437,444
269430,498,526,392
269434,456,629,515
269438,486,587,577
269443,537,431,550
269447,533,390,419
269451,495,495,460
269455,448,585,593
269459,474,522,627
269463,535,431,515
269467,529,449,429
269470,511,592,419
269474,492,619,565
269478,499,496,606
269483,527,399,492
269487,530,489,415
269491,492,611,488
269495,480,577,580
269499,524,462,600
269503,549,419,454
269507,518,490,392
269511,480,576,508
269515,494,556,637
269519,535,450,571
269523,548,416,440
269527,489,523,433
269531,441,613,538
269535,443,603,563
269539,528,504,438
269543,569,504,408
269547,525,554,481
269551,489,525,615
269555,502,458,608
269559,537,384,508
269563,532,444,378
269568,475,590,493
269572,468,584,618
269576,511,465,601
269580,535,400,475
269583,523,466,435
269587,487,577,499
269591,479,618,567
269595,519,517,562
269599,542,464,441
269603,525,496,430
269607,477,595,507
269612,468,609,581
269616,508,498,540
269620,534,417,409
269624,517,467,477
269628,473,529,572
269632,469,514,586
269636,488,452,501
269639,501,427,436
269643,472,498,503
269647,484,627,592
269651,528,580,564
269656,565,424,487
269660,555,426,422
269664,503,538,479
269668,476,553,587
269672,507,461,581
269676,552,424,445
269680,536,504,431
269684,476,585,554
269688,464,610,604
269692,513,533,545
269696,528,406,447
269700,493,460,418
269704,477,572,511
269708,503,593,599
269712,529,468,534
269716,513,422,402
269720,461,530,439
269724,430,607,604
