169075,503,604,567
169078,493,539,588
169082,505,432,487
169086,521,444,418
169091,517,550,481
169095,497,596,588
169099,491,516,577
169103,509,425,462
169107,520,466,418
169111,509,574,505
169115,492,585,595
169119,495,485,550
169123,514,420,436
169127,521,487,422
169132,507,589,530
169135,488,571,600
169139,497,464,530
169143,521,427,427
169147,527,516,441
169151,508,599,556
169155,495,553,594
169159,501,445,502
169163,518,437,421
169167,518,540,471
169171,498,601,581
169176,491,529,589
169180,504,428,476
169184,521,450,415
169188,514,561,493
169191,496,592,595
169195,490,499,569
169199,509,420,454
169203,524,473,421
169207,515,581,520
169211,491,580,604
169216,489,470,545
169220,509,415,433
169224,516,492,430
169228,510,586,544
169232,493,555,600
169236,498,448,518
169240,517,425,419
169244,519,519,450
169247,504,595,567
169251,493,539,591
169255,503,434,487
169260,521,437,409
169264,516,541,475
169268,496,593,586
169272,490,517,581
169276,508,427,468
169280,523,460,416
169284,514,570,506
169288,492,587,601
169292,488,491,565
169296,503,417,451
169300,518,478,429
169304,510,583,532
169308,488,572,604
169312,488,465,536
169316,513,420,429
169320,521,502,444
169324,507,591,555
169328,490,549,599
169332,496,441,511
169336,519,428,418
169340,523,527,461
169345,503,594,577
169349,491,528,591
169353,505,428,484
169357,523,449,418
169360,520,557,491
169363,503,595,600
169367,496,510,580
169371,511,424,461
169375,525,470,418
169379,512,579,514
169383,491,586,603
169388,494,484,554
169392,513,421,439
169396,521,492,432
169400,512,590,541
169404,494,565,600
169408,493,457,523
169412,512,423,421
169416,521,514,444
169419,507,593,560
169423,491,541,592
169427,499,434,492
169432,518,435,409
169436,520,539,469
169440,502,598,581
169444,491,524,578
169448,503,430,470
169452,522,460,415
169456,518,570,500
169460,495,594,595
169464,491,499,566
169468,509,424,452
169473,524,481,426
169476,513,587,528
169480,489,581,609
169484,486,472,545
169488,510,421,434
169492,525,500,437
169496,513,591,552
169500,495,555,602
169504,498,446,514
169508,518,426,419
169512,519,525,455
169517,506,598,570
169521,495,536,591
169525,507,430,485
169529,523,438,412
169532,523,544,480
169536,505,586,588
169540,500,503,576
169544,512,416,463
169548,524,460,417
169552,516,571,508
169556,496,585,601
169561,492,488,556
169565,511,423,442
169569,523,490,434
169573,509,591,537
169577,491,571,603
169581,498,463,531
169585,517,424,428
169588,520,511,447
169592,507,595,560
169596,491,547,599
169601,499,440,504
169605,519,434,417
169609,521,536,470
169613,502,598,583
169617,492,529,587
169621,503,430,476
169625,519,452,414
169629,515,560,489
169633,493,589,591
169637,488,500,567
169641,505,419,455
169645,519,469,424
169649,508,577,522
169653,492,579,603
169657,493,476,548
169661,511,423,435
169665,521,500,433
169669,503,596,544
169673,487,563,602
169677,490,451,522
169681,509,422,425
169686,521,515,455
169690,503,592,569
169694,486,535,595
169698,498,429,488
169701,517,436,411
169705,515,546,471
169709,496,596,582
169713,483,512,575
169717,500,419,460
169721,520,455,406
169725,514,563,496
169730,491,580,594
169734,483,485,558
169738,506,416,442
169742,524,478,420
169746,511,580,527
169750,490,566,602
169754,492,457,535
169757,511,414,428
169761,519,499,439
169765,499,591,553
169769,485,553,601
169774,496,445,510
169778,518,427,417
169782,518,528,464
169786,495,594,576
169790,484,527,586
169794,498,425,479
169798,516,442,410
169802,513,549,483
169806,493,588,587
169810,485,505,570
169814,501,422,453
169818,516,468,412
169822,507,577,507
169826,486,584,594
169830,486,481,545
169834,507,421,433
169838,516,492,428
169842,500,591,537
169846,482,571,600
169850,486,462,524
169854,507,428,423
169859,511,520,448
169863,491,600,563
169867,481,545,598
169870,489,436,500
169874,508,438,417
169878,508,544,471
169882,489,598,585
169886,482,518,583
169890,496,419,470
169894,510,447,411
169899,502,559,494
169903,486,584,593
169907,481,490,564
169911,496,416,449
169915,511,473,420
169919,497,578,519
169923,480,576,599
169926,482,472,541
169930,501,420,428
169934,507,494,433
169938,492,584,549
169943,473,553,605
169947,480,447,519
169951,504,430,426
169955,506,530,459
169959,485,601,573
169963,478,539,593
169967,489,436,492
169971,506,447,415
169975,506,552,480
169979,485,597,590
169982,478,516,579
169987,494,426,465
169991,507,462,417
169995,501,566,505
169999,480,580,595
170003,478,485,552
170007,501,421,438
170011,512,486,423
170015,495,585,532
170019,476,572,602
170023,483,468,533
170028,504,431,430
170032,506,516,449
170036,489,601,563
170039,477,557,600
170042,488,452,505
170046,505,439,416
170050,500,536,467
170054,482,596,582
170058,476,528,591
170062,492,433,479
170066,509,455,415
170071,501,560,492
170075,479,596,595
170079,474,514,572
170083,495,435,455
170087,509,478,419
170091,494,578,517
170095,477,580,603
170098,481,478,547
170102,498,419,430
170106,511,494,429
170110,496,591,542
170115,476,565,600
170119,482,456,518
170123,503,425,420
170127,504,515,454
170131,485,592,569
170135,473,535,594
170139,487,428,494
170143,504,433,411
170147,501,540,472
170151,480,592,586
170155,471,518,582
170159,486,426,470
170163,505,458,417
170167,500,567,506
170171,480,588,603
170175,478,495,564
170179,496,423,448
170183,505,478,421
170187,491,576,526
170191,474,569,600
170195,480,468,531
170200,500,423,424
170204,505,501,437
170208,486,590,552
170211,471,555,599
170215,484,451,512
170219,506,436,418
170223,504,536,459
170227,483,603,574
170231,471,536,591
170235,487,435,483
170240,503,450,413
170244,498,557,483
170248,478,598,592
170252,474,514,578
170256,492,428,464
170260,506,469,421
170264,495,574,516
170267,476,582,605
170271,479,479,552
170275,501,416,440
170279,509,490,433
170284,490,591,535
170288,474,569,596
170292,480,457,520
170296,500,427,419
170300,505,521,441
170304,483,603,557
170308,476,552,592
170312,491,445,495
170316,512,442,412
170320,507,545,470
170323,482,601,584
170328,475,522,583
170332,493,426,477
170336,507,453,413
170340,501,561,492
170344,482,590,595
170348,477,496,564
170352,496,417,448
170356,509,471,420
170360,496,579,524
170364,479,574,604
170369,484,463,538
170373,506,412,428
170377,508,492,432
170380,492,585,546
170384,475,552,601
170388,489,443,514
170392,506,421,415
170396,502,517,452
170400,482,592,567
170404,472,534,587
170408,488,432,488
170413,507,441,412
170417,503,547,476
170421,483,594,585
170425,475,512,577
170429,493,423,463
170433,506,461,416
170436,494,569,508
170440,476,585,599
170444,477,487,558
170448,495,421,446
170452,501,485,427
170457,484,584,532
170461,473,565,602
170465,484,459,533
170469,504,422,430
170473,505,510,447
170477,484,596,557
170481,475,553,599
170485,488,448,503
170489,504,436,415
170492,500,537,465
170497,482,600,574
170501,481,531,585
170505,499,433,476
170509,510,455,413
170513,498,562,487
170517,485,595,590
170521,488,505,569
170525,505,424,456
170529,512,471,420
170533,495,574,519
170537,481,579,604
170542,489,480,550
170546,510,422,441
170549,513,495,437
170553,498,589,548
170557,486,560,605
170561,497,451,522
170565,513,424,418
170569,508,516,448
170573,488,592,567
170577,489,537,598
170582,504,435,493
170586,525,437,412
170590,519,540,472
170594,497,592,581
170598,493,518,580
170602,511,427,467
170605,523,461,418
170609,516,571,503
170613,497,593,597
170617,497,496,559
170621,514,422,447
170626,525,481,425
170630,511,583,527
170634,495,574,602
170638,503,470,539
170642,519,423,431
170646,520,503,438
170650,503,592,552
170654,491,554,602
170658,503,446,510
170661,520,428,417
170664,518,524,459
170669,500,593,575
170673,490,533,588
170677,506,432,477
170681,524,445,406
170685,517,550,477
170689,495,589,584
170693,489,507,570
170697,509,422,458
170701,525,469,416
170705,515,576,507
170710,496,585,599
170714,493,487,552
170718,515,425,440
170721,529,493,430
170725,512,587,538
170729,500,567,602
170733,507,461,526
170737,527,429,429
170741,534,518,448
170745,515,599,554
170749,501,546,592
170754,518,438,500
170758,541,436,413
170762,541,537,462
170766,520,594,575
170770,511,523,583
170774,523,429,471
170777,539,454,413
170781,532,560,492
170785,511,588,592
170789,506,497,560
170793,521,420,445
170798,535,476,418
170802,521,582,521
170806,502,580,602
170810,503,476,543
170814,523,424,432
170818,531,501,436
170822,516,594,550
170826,497,560,605
170830,503,450,520
170833,522,427,422
170838,526,522,456
170842,515,595,570
170846,506,537,595
170850,515,435,494
170854,532,443,412
170858,530,548,476
170862,510,592,582
170866,503,508,574
170870,517,418,460
170874,532,459,411
170878,523,569,502
170883,505,588,598
170887,507,491,557
170890,528,422,441
170894,540,486,421
170898,531,588,528
170902,513,575,606
170906,514,468,534
170910,532,427,425
170914,536,511,438
170918,523,597,553
170923,514,557,598
170927,521,450,507
170931,541,435,419
170935,544,535,469
170939,530,600,577
170943,520,531,584
170946,531,431,478
170950,546,452,412
170954,542,561,490
170958,525,595,590
170962,522,502,562
170967,540,418,451
170971,553,467,415
170975,542,575,513
170979,524,580,599
170983,523,478,548
170987,540,422,438
170991,548,499,435
170995,533,598,545
170999,518,572,606
171002,526,463,526
171006,544,432,427
171011,549,521,456
171015,531,597,571
171019,518,543,599
171023,529,436,497
171027,546,439,417
171031,547,542,473
171035,526,592,584
171039,518,516,583
171043,535,422,470
171047,551,449,415
171052,546,560,503
171056,529,585,598
171059,526,490,560
171063,544,416,444
171067,557,473,423
171071,546,579,528
171075,526,572,601
171079,530,468,535
171083,550,421,426
171087,558,501,438
171091,541,593,550
171096,527,559,597
171100,532,456,508
171104,551,435,416
171108,552,530,458
171112,533,599,572
171115,526,536,592
171119,536,433,487
171123,550,443,415
171127,547,549,487
171131,529,591,594
171136,521,506,576
171140,532,421,462
171144,548,468,422
171148,542,577,514
171152,521,586,600
171156,515,486,555
171160,534,421,433
171164,544,486,422
171168,526,586,531
171171,516,567,596
171175,524,462,520
171180,541,426,417
171184,546,517,441
171188,531,601,560
171192,514,552,595
171196,522,441,497
171200,543,434,414
171204,539,539,472
171208,517,600,588
171212,509,527,591
171216,522,428,478
171220,538,448,419
171225,533,553,498
171228,515,582,596
171232,508,496,565
171236,521,424,456
171240,530,479,433
171244,522,581,522
171248,506,575,602
171252,509,468,540
171256,521,415,428
171260,533,494,434
171265,521,587,544
171269,506,553,597
171273,511,443,513
171277,526,424,418
171281,522,524,457
171284,513,601,573
171288,504,541,596
171292,513,435,493
171296,530,444,418
171300,527,548,481
171304,506,597,591
171309,499,518,578
171313,513,430,465
171317,529,468,415
171321,525,579,504
171325,507,594,594
171329,502,491,552
171333,514,420,440
171337,529,484,424
171340,521,587,530
171344,502,578,601
171348,501,470,529
171353,519,429,420
171357,527,516,438
171361,513,605,555
171365,495,561,594
171369,505,452,499
171373,525,443,411
171377,527,546,460
171381,512,611,574
171385,503,538,586
171389,515,438,480
171394,524,457,413
171397,526,561,488
171401,514,591,592
171405,506,502,572
171409,517,420,457
171413,536,468,421
171417,531,579,518
171421,513,581,605
171425,510,473,548
171429,527,418,434
171433,540,500,429
171438,529,600,541
171442,512,566,600
171446,513,450,520
171450,530,428,424
171453,537,530,455
171457,524,609,563
171461,506,545,591
171465,515,435,491
171469,534,439,410
171473,537,547,467
171478,519,599,579
171482,509,519,578
171486,521,426,465
171490,538,461,414
171494,533,570,502
171498,514,589,600
171502,505,490,562
171506,521,415,447
171509,541,474,422
171513,533,577,525
171517,511,564,603
171522,511,454,539
171526,528,407,433
171530,539,492,445
171534,527,582,556
171538,508,544,599
171542,512,437,510
171546,532,423,416
171550,537,521,456
171554,518,587,572
171558,502,523,592
171563,513,426,480
171566,533,445,410
171570,537,556,482
171574,518,597,589
171578,508,507,574
171582,519,418,459
171586,537,462,420
171590,531,570,511
171594,516,579,599
171598,509,476,549
171602,527,412,437
171607,541,482,426
171611,529,582,536
171615,511,557,602
171619,515,447,529
171622,534,415,426
171626,541,509,447
171630,523,592,560
171634,511,537,596
171638,518,427,502
171642,536,426,415
171646,536,531,465
171651,518,589,578
171655,503,514,583
171659,512,421,476
171663,531,454,414
171667,529,566,492
171671,512,592,594
171675,504,496,565
171678,519,418,453
171682,531,470,427
171686,522,577,529
171691,506,576,607
171695,504,470,546
171699,522,417,433
171703,531,500,437
171707,520,595,552
171711,501,558,604
171715,503,446,518
171719,522,427,422
171723,529,528,460
171727,514,600,576
171731,498,540,596
171735,507,434,490
171739,526,443,412
171743,525,552,478
171747,506,598,588
171751,495,509,581
171755,508,418,468
171759,524,458,412
171763,519,573,502
171767,499,590,596
171771,494,487,556
171776,510,419,443
171780,523,486,430
171784,510,590,536
171788,494,573,606
171791,496,463,536
171795,513,424,430
171799,519,514,448
171803,504,601,561
171807,493,553,603
171811,501,444,510
171815,515,435,418
171820,517,539,461
171824,503,601,575
171828,493,527,591
171832,502,428,485
171836,519,451,415
171840,517,559,488
171844,495,592,592
171847,492,498,570
171851,505,416,459
171855,516,471,420
171859,511,584,518
171864,495,585,603
171868,490,479,552
171872,507,421,436
171876,514,498,431
171880,503,594,543
171884,493,562,603
171888,494,452,524
171892,511,425,423
171896,519,522,452
171900,505,603,571
171904,490,548,601
171908,495,440,501
171912,512,443,418
171916,517,547,474
171920,496,597,582
171924,487,517,580
171928,500,422,464
171932,520,457,412
171936,516,568,497
171940,497,589,593
171944,487,492,557
171949,496,419,442
171953,515,481,420
171957,507,588,523
171960,492,578,601
171964,488,471,536
171968,504,425,428
171972,517,508,439
171976,506,598,552
171980,488,559,600
171984,493,449,513
171988,512,433,422
171993,515,534,462
171997,500,601,573
172001,483,528,589
172005,491,424,485
172009,514,444,413
172013,516,554,485
172016,494,594,589
172020,481,505,573
172024,496,418,458
172028,511,464,412
172033,509,572,503
172037,492,583,593
172041,489,483,548
172045,507,424,441
172049,518,491,424
172053,509,587,533
172057,493,566,602
172061,491,458,528
172065,510,422,425
172069,519,515,446
172072,504,599,563
172076,487,546,597
172080,496,435,503
172084,517,435,418
172088,522,539,468
172092,502,595,579
172096,490,521,586
172100,499,421,475
172104,521,447,415
172108,522,553,494
172112,503,582,595
172116,490,492,566
172121,504,417,452
172125,523,475,423
172129,515,582,520
172132,495,575,599
172136,487,467,539
172140,509,418,431
172144,527,500,436
172148,513,596,552
172152,493,563,602
172156,492,453,514
172161,511,431,417
172165,520,529,451
172169,508,602,570
172173,491,540,591
172177,496,434,489
172181,515,435,411
172185,518,538,475
172188,504,592,586
172192,490,520,578
172196,497,430,464
172200,516,470,417
172205,514,580,504
172209,496,590,598
172213,490,488,554
172217,504,418,440
172221,518,485,421
172225,512,587,528
172229,493,573,600
172233,490,466,530
172237,509,425,423
172240,519,511,437
172243,507,597,552
172248,491,551,595
172252,491,440,503
172256,510,431,416
172260,517,534,463
172264,503,597,577
172268,486,528,589
172272,492,428,480
172276,510,450,416
172280,508,561,493
172284,492,593,592
172289,484,503,571
172293,495,421,453
172297,515,467,416
172300,513,575,513
172304,492,580,598
172308,484,479,544
172312,504,421,433
172316,520,493,424
172320,513,589,535
172324,495,564,596
172328,493,457,517
172333,510,427,417
172337,517,519,446
172341,505,599,564
172345,493,544,592
172349,498,435,492
172353,518,438,413
172356,521,544,476
172360,502,596,585
172364,484,513,581
172368,497,419,470
172372,518,454,414
172377,516,567,499
172381,493,589,597
172385,487,493,561
172389,507,420,443
172393,524,481,421
172397,515,583,525
172401,496,570,598
172405,497,464,535
172409,513,419,429
172412,524,504,439
172417,513,597,550
172421,494,556,599
172425,496,444,509
172429,516,429,417
172433,522,531,462
172437,505,599,572
172441,491,531,590
172445,498,427,483
172449,519,443,412
172453,519,556,484
172457,497,597,591
172462,483,506,577
172466,494,418,464
172469,512,466,423
172473,508,577,513
172477,491,585,599
172481,485,481,550
172485,503,416,435
172489,519,487,427
172493,514,588,538
172497,496,565,600
172502,494,453,522
172506,516,418,416
172510,526,512,440
172514,512,594,558
172518,496,542,590
172522,503,431,495
172525,520,431,412
172529,525,538,464
172533,505,596,580
172537,491,523,586
172541,501,426,475
172546,524,455,414
172550,523,563,494
172554,502,589,594
172558,494,493,569
172562,509,416,452
172566,524,474,417
172570,518,580,517
172574,502,573,600
172578,499,466,543
172581,514,412,433
172585,526,487,436
172590,519,580,547
172594,504,547,600
172598,508,441,515
172602,525,421,417
172606,530,520,453
172610,519,594,568
172614,503,533,592
172618,510,428,490
172622,531,439,416
172626,531,548,484
172631,511,593,591
172635,501,509,579
172638,511,422,465
172642,527,464,418
172646,527,575,510
172650,506,587,603
172654,501,483,560
172658,516,414,443
172662,530,481,427
172666,521,585,533
172670,503,569,603
172675,502,460,536
172679,519,422,431
172683,528,511,444
172687,512,597,559
172691,498,548,599
172694,506,438,504
172698,522,433,413
172702,523,539,460
172706,508,601,575
172710,494,526,587
172715,503,427,479
172719,520,450,415
172723,524,559,490
172727,506,591,592
172731,493,496,572
172735,509,414,457
172739,527,469,420
172743,520,577,517
172747,500,580,599
172750,499,475,543
172754,516,420,434
172759,530,498,431
172763,517,596,544
172767,499,567,606
172771,501,455,522
172775,521,426,420
172779,530,521,446
172783,515,598,562
172787,495,540,592
172791,502,435,492
172795,526,442,413
172800,526,548,473
172804,510,599,584
172807,498,517,577
172811,508,423,467
172815,528,460,411
172819,527,569,498
172823,503,591,598
172827,501,493,559
172831,520,421,444
172835,534,484,422
172839,524,588,528
172844,501,577,605
172848,497,466,536
172852,519,420,429
172856,534,503,438
172860,525,595,553
172863,505,555,605
172867,504,444,516
172871,524,432,421
172875,533,534,462
172879,515,600,572
172883,500,531,587
172888,508,427,485
172892,530,443,414
172896,532,552,486
172900,512,593,586
172904,498,506,571
172908,511,420,455
172912,530,464,409
172916,522,569,506
172919,504,578,595
172923,498,477,547
172928,515,416,435
172932,527,488,424
172936,517,587,532
172940,497,565,591
172944,500,460,524
172948,519,427,427
172952,528,519,450
172956,514,601,568
172960,498,550,599
172964,504,440,497
172968,523,439,402
172973,526,546,469
172976,507,601,583
172980,494,525,582
172984,502,429,473
172988,519,460,412
172992,522,567,490
172996,505,589,594
173000,500,487,566
173004,516,408,449
173008,527,465,418
173012,516,573,521
173017,498,572,603
173021,498,468,542
173025,516,420,435
173029,526,502,436
173032,517,595,545
173036,499,560,598
173040,499,450,519
173044,519,431,422
173048,527,525,458
173052,510,597,572
173057,497,535,592
173061,505,430,490
173065,521,447,414
173069,520,557,471
173073,502,598,581
173077,494,505,573
173081,508,413,464
173085,523,454,414
173088,517,568,503
173092,499,583,601
173096,499,482,560
173101,513,415,444
173105,527,479,428
173109,521,577,528
173113,501,557,601
173117,502,451,532
173121,520,418,428
173125,527,508,448
173129,514,593,562
173133,496,545,603
173137,503,436,513
173142,519,428,424
173145,519,531,470
173149,507,594,577
173153,498,525,591
173157,507,425,484
173161,525,450,419
173165,522,560,495
173169,503,593,600
173173,496,504,572
173177,510,426,456
173181,525,473,422
173186,517,576,518
173190,498,581,605
173194,498,479,549
173198,517,420,439
173201,525,487,435
173205,512,582,546
173209,496,561,608
173213,502,458,522
173217,520,433,420
173221,522,520,452
173225,507,592,571
173230,492,542,602
173234,499,444,505
173238,519,443,427
173242,522,541,479
173246,506,593,588
173250,496,518,588
173254,508,426,477
173257,526,454,424
173261,523,557,506
173265,504,579,600
173270,495,489,563
173274,510,421,447
173278,526,475,419
173282,514,572,527
173286,493,567,607
173290,495,469,539
173294,509,420,429
173298,516,494,441
173302,507,581,552
173306,493,554,598
173310,495,455,511
173314,513,436,421
173318,523,527,461
173322,508,595,574
173326,494,537,586
173330,502,439,480
173334,517,450,414
173338,518,552,485
173342,499,596,598
173346,492,519,579
173350,507,437,469
173355,522,472,427
173359,514,569,513
173363,497,583,600
173367,492,489,559
173370,507,424,442
173374,517,487,435
173378,512,580,540
173382,493,559,603
173386,491,460,523
173390,510,430,419
173394,519,511,442
173399,503,585,556
173403,491,545,591
173407,499,452,492
173411,518,445,405
173415,520,536,462
173419,499,589,564
173423,485,515,576
173426,501,420,491
173430,520,455,428
173434,520,563,510
173438,498,583,600
173443,488,488,579
173447,504,414,467
173451,517,478,426
173455,512,585,514
173459,491,582,588
173463,489,472,538
173467,508,422,411
173471,519,498,421
173475,508,588,562
173479,490,555,613
173483,494,447,524
173486,515,425,440
173490,519,526,469
173494,507,606,568
173498,493,555,576
173502,500,455,473
173506,519,454,398
173510,522,542,451
173514,502,579,551
173518,488,515,539
173522,501,456,410
173527,520,510,372
173531,516,595,537
173535,491,585,669
173539,483,484,618
173543,504,415,499
173547,519,465,459
173551,508,563,558
173555,487,571,640
173559,488,485,566
173563,512,449,469
173568,520,526,476
173572,504,596,571
173576,489,552,580
173580,493,452,404
173584,512,432,250
173588,516,521,412
173592,497,587,533
173595,485,534,587
173599,497,437,498
173603,518,450,466
173607,517,553,539
173612,497,584,603
173616,487,502,546
173620,501,421,354
173624,519,471,348
173628,512,589,418
173632,491,600,535
173636,490,498,598
173640,507,433,505
173644,514,489,546
173648,500,583,629
173651,486,570,634
173655,490,469,536
173659,511,443,460
173663,518,522,486
173667,499,587,569
173671,483,539,531
173675,485,453,453
173679,502,447,369
173683,505,530,440
173687,474,583,565
173691,469,524,560
173696,481,429,431
173700,511,461,353
173704,488,565,492
173708,464,594,650
173711,462,513,566
173715,465,458,417
173719,503,500,417
173723,516,604,513
173727,494,629,578
173731,493,535,501
173735,502,461,424
173740,500,486,485
173744,474,567,621
173748,447,506,632
173752,456,432,482
173756,483,513,392
173760,479,584,469
173764,454,620,567
173767,465,551,588
173771,477,411,512
173775,482,385,475
173779,478,481,509
173784,456,538,588
173788,436,529,530
173792,428,501,387
173796,476,507,426
173800,505,587,555
173804,492,586,622
173808,506,482,548
173812,515,417,442
173816,515,510,431
173820,486,605,574
173824,501,577,622
173828,514,531,491
173832,490,424,464
173836,434,445,493
173840,459,542,590
173844,474,590,566
173848,512,522,475
173852,529,474,445
173856,521,547,503
173860,492,550,636
173864,470,453,616
173869,456,416,486
173873,464,442,466
173877,477,591,460
173880,473,698,535
173884,522,574,599
173888,499,390,529
173892,497,429,434
173896,532,596,486
173900,509,640,601
173904,504,459,612
173908,447,381,488
173913,354,543,416
173917,418,708,531
173921,543,663,619
173925,534,469,551
173929,474,393,452
173932,471,566,419
173935,529,669,562
173939,506,505,662
173943,433,440,492
173947,460,571,393
173952,480,694,481
173956,484,611,674
173960,480,393,694
173964,528,252,571
173968,581,313,465
173972,579,559,489
173976,458,758,504
173980,500,627,501
173984,576,432,484
173987,575,404,485
173990,552,467,598
173995,529,433,664
173999,526,335,601
174003,553,379,461
174007,520,511,472
174011,478,558,610
174015,480,466,644
174019,545,356,533
174023,597,389,432
174027,583,559,461
174031,483,711,524
174035,440,685,523
174040,512,459,521
174043,573,343,501
174046,577,462,519
174050,482,550,632
174054,397,439,625
174058,498,382,451
174062,604,558,385
174066,640,690,462
174070,559,560,637
174074,476,367,603
174078,483,336,457
174083,601,497,400
174087,596,566,581
174091,543,468,651
174095,486,363,535
174098,542,377,397
174101,580,529,415
174105,532,641,524
174109,519,531,624
174113,571,375,539
174117,574,370,448
174121,546,531,443
174126,505,673,543
174130,486,609,552
174134,508,483,453
174138,520,417,417
174142,478,509,442
174146,454,619,599
174150,540,528,583
174154,523,414,455
174157,528,495,389
174161,571,506,559
174166,542,533,633
174170,469,440,542
174174,438,349,466
174178,513,510,386
174182,576,640,510
174186,561,581,627
174190,485,513,443
174194,566,448,444
174198,595,525,477
174202,533,647,534
174206,434,541,644
174211,503,294,576
174214,559,290,472
174218,531,453,494
174222,473,483,647
174226,454,416,558
174230,501,363,462
174234,488,450,401
174238,520,699,435
174242,507,694,582
174246,503,433,586
174251,586,343,444
174255,565,443,418
174259,518,557,510
174263,495,684,540
174267,575,669,470
174270,592,455,481
174274,549,365,510
174278,476,441,602
174282,475,513,550
174286,481,474,462
174290,489,419,347
174295,541,563,455
174299,458,588,638
174303,413,433,669
174307,522,308,514
174311,504,405,380
174315,518,686,419
174319,534,649,655
174323,528,424,586
174326,531,335,453
174330,478,402,465
174334,482,576,503
174339,502,706,540
174343,568,620,507
174347,571,430,470
174351,525,418,443
174355,532,623,471
174359,529,568,615
174363,508,414,537
174367,493,326,484
174371,508,462,424
174375,473,682,506
174380,413,677,543
174383,464,400,565
174387,531,273,502
174391,559,374,534
174395,482,469,617
174399,498,448,570
174403,533,378,472
174407,545,479,376
174411,519,645,500
174415,461,632,627
174419,481,530,516
174424,540,429,401
174428,513,543,340
174432,499,599,557
174436,515,526,618
174439,508,437,488
174443,453,561,342
174447,479,798,357
174451,484,704,562
174455,461,369,725
174459,507,166,598
174464,524,245,433
174468,512,427,498
174472,473,490,637
174476,511,430,634
174480,521,349,473
174484,505,398,397
174488,518,577,463
174492,514,702,545
174495,541,531,582
174499,547,403,410
174503,515,481,382
174508,469,702,417
174512,452,666,587
174516,435,424,596
174520,523,350,395
174524,560,542,398
174528,537,726,524
174532,485,530,679
174536,416,305,585
174540,461,287,456
174544,522,457,440
174548,532,593,565
174552,509,561,553
174556,456,400,522
174560,514,342,470
174564,518,449,472
174568,502,582,555
174572,455,549,579
174576,452,462,460
174580,562,418,439
174584,572,511,501
174588,514,616,554
174593,503,566,536
174597,474,444,442
174601,448,460,440
174605,454,572,500
174608,469,590,635
174612,485,432,587
174616,532,348,422
174620,565,450,427
174624,541,578,542
174628,496,574,582
174632,439,468,501
174637,509,458,395
174641,554,515,427
174645,493,519,590
174649,529,493,583
174653,531,466,470
174657,524,480,381
174661,511,537,487
174664,496,674,501
174668,473,585,526
174672,496,471,478
174676,510,413,494
174681,514,447,605
174685,480,458,637
174689,466,407,518
174693,464,401,413
174697,533,508,427
174701,524,600,537
174705,480,526,652
174709,484,403,515
174713,509,412,321
174717,506,569,396
174721,531,658,543
174725,514,603,586
174729,475,415,522
174733,500,428,418
174737,544,520,451
174741,511,614,584
174745,510,482,599
174749,530,357,482
174753,515,413,421
174757,486,564,470
174761,475,675,539
174766,427,565,544
174770,475,379,507
174774,519,380,470
174777,493,505,510
174781,413,579,567
174785,417,555,513
174789,515,590,382
174793,576,599,410
174797,539,540,567
174801,477,452,569
174806,493,384,517
174810,500,480,386
174814,531,544,491
174818,533,532,602
174822,519,432,607
174826,488,366,461
174830,504,449,382
174833,518,534,450
174837,508,567,586
174841,480,496,599
174845,506,415,464
174850,521,445,403
174854,489,576,479
174858,438,683,556
174862,431,519,572
174866,472,399,435
174870,504,502,392
174874,493,603,518
174878,457,581,623
174882,476,435,549
174886,538,363,444
174889,596,457,434
174894,557,556,570
174898,505,555,541
174902,480,486,451
174906,466,443,423
174910,491,527,461
174914,507,600,590
174918,484,551,563
174922,507,452,474
174926,490,444,407
174930,471,525,454
174935,470,582,574
174939,498,479,569
174943,481,399,455
174946,516,478,390
174950,516,651,490
174954,498,621,548
174958,482,471,540
174962,457,369,459
174966,481,473,466
174970,513,575,547
174974,534,542,594
174979,542,455,521
174983,562,427,404
174987,544,542,422
174991,516,671,518
174995,476,639,558
174999,467,452,491
175002,478,378,449
175005,491,497,491
175009,476,607,579
175013,467,498,588
175017,492,376,477
175022,497,406,419
175026,468,580,475
175030,446,623,568
175034,493,561,537
175038,560,498,425
175042,552,518,399
175046,535,625,499
175050,497,577,613
175054,464,429,565
175057,521,383,429
175060,535,459,477
175065,509,566,565
175069,491,579,580
175073,476,481,500
175077,461,431,418
175081,457,522,467
175085,452,565,581
175089,458,496,608
175093,453,408,493
175097,490,445,409
175101,529,537,509
175106,499,599,541
175110,492,558,501
175114,553,556,427
175117,542,576,398
175121,517,562,486
175125,506,532,611
175129,454,445,542
175133,492,478,426
175137,519,553,394
175141,507,557,570
175145,484,501,628
175150,508,394,541
175154,523,438,375
175158,537,528,436
175162,518,567,581
175166,495,528,574
175170,500,465,478
175173,480,535,354
175177,512,601,499
175181,501,589,579
175185,495,520,558
175190,432,437,403
175194,451,432,436
175198,494,517,539
175202,539,560,617
175206,526,506,581
175210,479,417,473
175214,512,453,421
175218,529,582,477
175222,534,662,492
175225,527,533,534
175228,512,427,431
175233,505,492,465
175237,527,580,530
175241,512,628,578
175245,513,490,544
175249,521,425,408
175253,519,523,439
175257,486,579,572
175261,469,530,566
175265,503,428,458
175269,497,513,327
175273,452,634,470
175278,404,560,659
175281,474,425,633
175284,551,367,459
175288,573,439,401
175292,574,602,506
175296,528,627,583
175300,484,506,534
175304,473,412,445
175308,501,488,405
175312,494,590,509
175316,463,562,608
175321,454,433,549
175325,454,432,429
175329,451,567,378
175333,520,650,483
175336,544,540,624
175339,513,387,572
175343,499,408,434
175347,495,550,464
175351,490,628,567
175355,486,538,586
175360,477,419,480
175364,531,458,414
175368,592,607,455
175372,540,632,563
175376,476,503,559
175380,502,404,448
175384,562,463,424
175388,558,619,491
175392,507,628,606
175395,462,457,595
175399,474,392,445
175404,525,491,418
175408,536,590,498
175412,471,586,542
175416,456,445,523
175420,505,393,422
175424,516,490,427
175428,506,601,573
175432,467,565,563
175436,429,495,481
175440,492,448,440
175444,542,528,477
175449,571,611,548
175452,544,542,538
175456,521,458,463
175460,543,489,403
175464,511,635,478
175468,496,608,617
175472,510,477,591
175476,512,368,481
175480,520,427,438
175484,496,564,546
175489,474,607,570
175493,485,486,515
175497,511,429,410
175501,516,551,364
175505,495,611,530
175508,448,529,645
175512,476,426,537
175516,523,428,413
175520,549,552,430
175524,526,619,576
175528,521,535,610
175533,514,413,499
175537,524,435,394
175541,475,559,475
175545,485,640,548
175549,502,620,546
175553,522,515,437
175557,555,467,434
175560,530,532,540
175563,485,563,551
175567,513,502,557
175571,536,412,464
175576,501,455,430
175580,455,565,550
175584,452,583,583
175588,502,468,521
175592,510,445,392
175596,497,599,395
175600,449,625,593
175604,425,504,612
175608,533,397,496
175612,616,427,419
175616,594,533,473
175619,528,598,594
175623,492,541,586
175627,520,465,454
175631,523,470,389
175635,517,557,521
175639,492,580,615
175643,476,510,543
175647,496,423,447
175651,506,496,420
175655,468,618,494
175660,443,591,600
175664,470,436,568
175668,473,380,434
175671,490,500,441
175674,513,617,539
175678,494,572,598
175682,475,438,516
175686,517,409,420
175690,500,531,454
175694,510,695,496
175698,540,599,609
175703,505,435,512
175707,507,416,410
175711,524,512,473
175715,482,590,579
175719,479,528,540
175723,535,424,451
175726,531,453,431
175729,471,567,487
175733,452,614,556
175737,449,556,532
175741,502,464,465
175746,491,456,462
175750,497,540,553
175754,496,528,604
175758,468,432,516
175762,504,433,401
175766,562,552,403
175770,566,679,520
175774,542,580,634
175778,496,401,545
175781,486,381,410
175784,486,534,429
175789,473,677,519
175793,495,567,612
175797,498,391,524
175801,533,402,436
175805,507,548,496
175809,507,618,555
175813,519,531,547
175817,527,432,464
175821,502,467,414
175825,470,581,517
175830,451,578,635
175834,514,466,556
175837,545,445,425
175840,514,537,410
175844,521,685,474
175848,512,597,640
175852,478,413,578
175856,529,383,437
175860,538,528,449
175864,488,617,580
175868,424,544,608
175873,452,456,443
175877,498,493,377
175881,537,603,453
175885,535,674,578
175889,529,498,622
175892,538,364,531
175896,515,375,385
175900,472,496,516
175904,469,594,585
175908,527,540,573
175912,523,478,437
175917,513,607,389
175921,502,624,519
175925,496,528,611
175929,511,402,551
175933,476,386,439
175937,513,472,471
175941,481,586,592
175945,477,555,592
175948,510,460,449
175952,492,473,383
175956,478,573,459
175961,500,645,586
175965,506,549,612
175969,529,404,504
175973,549,441,401
175977,510,609,459
175981,482,633,583
175985,511,497,578
175989,527,414,449
175993,545,466,404
175997,533,586,530
176002,500,651,556
176005,476,572,553
176009,505,410,471
176013,509,477,444
176017,507,587,566
176021,495,535,630
176025,473,460,499
176029,477,419,409
176033,475,503,440
176037,430,571,594
176041,463,513,625
176046,532,415,497
176050,559,431,398
176054,566,605,421
176058,544,657,577
176061,510,533,587
176065,498,428,464
176069,491,445,412
176073,497,565,496
176077,482,601,589
176081,461,519,549
176086,501,457,419
176090,485,515,398
176094,482,564,571
176098,432,549,630
176102,475,467,579
176106,514,446,444
176110,503,539,430
176114,455,588,571
176117,478,546,601
176120,522,466,513
176124,493,446,385
176129,519,548,437
176133,553,623,557
176137,548,592,566
176141,526,451,497
176145,526,428,432
176149,538,585,487
176153,508,607,603
176157,478,506,565
176161,479,425,430
176165,504,529,382
176169,501,610,502
176174,486,551,652
176177,455,429,599
176181,495,357,440
176185,542,455,433
176189,505,579,520
176193,481,608,577
176197,484,581,465
176201,513,465,436
176205,541,478,445
176209,526,547,585
176214,472,535,633
176218,493,500,488
176222,514,483,429
176226,513,519,485
176229,521,594,563
176232,529,591,528
176236,521,487,478
176240,501,413,459
176244,470,552,487
176248,503,645,578
176252,518,601,523
176257,512,631,349
176261,526,542,420
176265,506,539,534
176269,486,476,671
176273,495,386,615
176277,482,370,444
176281,480,472,433
176285,445,570,541
176288,438,575,572
176292,504,511,509
176296,529,594,354
176301,531,636,420
176305,548,588,590
176309,497,451,611
176313,505,348,530
176317,520,348,438
176321,544,501,493
176325,537,549,616
176329,496,466,630
176333,490,404,496
176337,505,485,410
176342,554,618,498
176345,536,690,580
176349,524,525,579
176353,524,380,468
176357,504,446,416
176361,446,593,484
176365,410,617,552
176369,411,435,570
176373,481,356,478
176377,544,450,476
176381,512,579,572
176386,485,584,596
176390,517,569,452
176394,571,490,425
176398,559,484,487
176401,507,584,544
176405,511,660,531
176409,527,500,518
176413,526,409,454
176417,525,516,496
176421,502,599,575
176425,498,487,591
176430,510,394,495
176434,508,416,434
176438,512,522,521
176442,474,542,599
176446,424,448,564
176450,488,413,427
176454,528,601,338
176457,529,723,513
176461,508,643,634
176465,479,388,616
176470,523,311,495
176474,550,448,478
176478,534,599,583
176482,520,572,596
176486,515,454,476
176490,522,426,390
176494,523,501,452
176498,505,560,565
176502,483,560,584
176506,472,493,488
176510,491,631,352
176514,522,662,516
176518,495,518,678
176522,415,380,602
176526,439,338,442
176530,516,508,376
176534,544,658,514
176538,535,713,519
176542,523,514,596
176546,519,336,508
176550,525,399,438
176555,504,564,557
176559,507,517,639
176563,536,359,549
176567,543,351,447
176570,533,512,418
176574,521,682,522
176578,507,581,622
176582,517,422,499
176586,514,399,424
176590,506,534,452
176594,487,693,553
176599,514,616,583
176603,511,412,514
176607,522,377,433
176611,501,503,510
176615,459,563,623
176619,417,468,552
176623,483,452,392
176626,549,485,447
176630,573,557,596
176634,534,598,621
176638,502,500,502
176643,518,476,392
176647,523,530,436
176651,461,570,599
176655,491,557,600
176659,543,401,506
176663,551,455,382
176667,540,587,456
176671,526,563,590
176675,520,496,580
176679,504,468,438
176683,497,459,419
176687,500,529,524
176691,484,557,630
176695,476,512,567
176699,470,491,413
176703,514,510,416
176707,517,534,567
176711,480,517,654
176715,460,436,582
176719,543,474,391
176723,575,591,443
176728,540,588,568
176732,514,514,580
176736,477,408,499
176739,510,405,382
176743,536,516,393
176747,504,582,608
176751,488,484,628
176755,511,390,469
176759,546,455,389
176763,534,601,494
176768,513,585,603
176772,504,525,558
176776,471,468,468
176780,480,417,451
176784,502,491,517
176788,420,608,545
176792,468,637,513
176795,543,444,505
176799,577,404,465
176803,550,508,534
176807,530,509,612
176812,521,443,547
176816,539,400,422
176820,552,511,438
176824,531,612,558
176828,492,557,580
176832,481,456,478
176836,497,428,434
176840,509,522,472
176844,498,608,564
176848,467,558,580
176851,441,440,481
176856,425,428,435
176860,523,547,562
176864,530,636,577
176868,504,513,521
176872,557,400,409
176876,583,453,457
176880,563,583,533
176884,534,617,596
176888,501,471,539
176892,510,418,406
176897,513,523,410
176901,517,569,569
176905,518,511,626
176908,480,443,513
176911,473,418,386
176915,490,544,433
176919,491,657,555
176923,517,575,622
176927,523,425,474
176931,502,439,385
176935,517,547,542
176940,519,574,632
176944,525,484,627
176948,547,399,493
176952,544,452,416
176956,534,599,449
176960,496,623,593
176964,492,492,559
176967,527,381,465
176971,528,492,354
176975,505,658,482
176979,464,592,630
176984,448,427,590
176988,430,363,448
176992,517,474,438
176996,531,656,483
177000,502,675,592
177004,514,452,571
177008,550,397,430
177012,570,475,501
177016,548,563,588
177020,520,550,564
177024,520,413,480
177028,536,408,420
177032,533,526,466
177036,505,606,594
177040,501,561,577
177044,526,438,461
177048,540,483,401
177052,517,641,479
177056,499,587,631
177060,503,429,574
177064,517,413,358
177069,497,500,401
177073,443,587,583
177077,426,531,675
177080,483,418,567
177084,538,399,453
177088,534,554,430
177092,529,679,557
177096,509,555,616
177100,493,375,501
177104,463,381,421
177108,511,500,489
177113,560,572,619
177117,560,511,593
177121,543,431,419
177125,547,481,365
177129,513,581,486
177133,486,617,566
177136,492,570,518
177140,498,445,453
177144,505,458,439
177148,497,536,547
177153,472,582,580
177157,455,491,541
177161,486,411,404
177165,542,533,426
177169,571,629,549
177173,551,538,653
177177,522,388,570
177181,505,354,435
177185,523,466,471
177189,478,576,572
177192,502,552,596
177197,550,464,484
177201,554,438,415
177205,517,526,465
177209,499,578,575
177213,506,497,589
177217,510,417,461
177221,512,458,373
177225,483,575,480
177229,498,629,593
177233,492,566,515
177238,497,449,439
177242,504,477,430
177246,477,635,497
177249,509,651,577
177253,534,458,581
177257,541,361,453
177261,561,461,447
177265,543,586,550
177269,517,547,590
177273,483,433,488
177277,522,409,415
177282,535,535,461
177286,511,612,584
177290,514,554,548
177294,531,467,472
177298,526,465,425
177302,514,561,499
177305,492,572,595
177309,459,485,541
177313,476,456,395
177317,450,490,412
177321,457,554,535
177326,524,535,596
177330,495,429,564
177334,533,380,418
177338,571,476,415
177342,536,605,561
177346,513,598,625
177350,516,471,521
177354,520,411,411
177358,521,529,432
177361,523,612,526
177366,523,544,611
177370,506,424,500
177374,530,456,382
177378,510,551,471
177382,494,593,605
177386,471,520,586
177390,462,417,490
177394,538,455,433
177398,545,581,499
177402,497,604,590
177406,474,526,527
177411,481,400,470
177415,527,439,444
177418,542,559,509
177422,506,562,581
177426,486,478,502
177430,535,438,397
177434,500,527,452
177438,446,611,575
177442,507,535,618
177446,565,401,509
177451,582,400,396
177455,557,537,462
177459,517,620,590
177463,491,569,582
177467,493,488,439
177471,514,503,423
177474,543,556,498
177478,531,550,605
177482,506,448,582
177486,454,372,461
177490,423,455,393
177495,463,625,435
177499,517,612,622
177503,539,463,561
177507,555,396,445
177511,527,495,397
177515,472,636,483
177519,483,585,617
177523,543,429,558
177527,552,400,419
177530,549,497,437
177534,507,581,560
177539,466,543,622
177543,495,441,522
177547,544,450,421
177551,533,558,465
177555,523,611,557
177559,490,526,574
177563,498,411,494
177567,517,449,404
177571,513,605,478
177575,513,629,607
177580,475,473,598
177584,462,381,463
177587,508,487,402
177591,538,633,458
177595,474,630,606
177599,454,453,582
177603,534,432,405
177607,551,482,472
177611,523,541,579
177615,522,499,612
177619,527,390,492
177624,541,382,415
177628,537,551,454
177632,492,657,560
177636,486,539,611
177640,500,395,528
177643,524,409,441
177647,522,549,462
177651,500,621,562
177655,448,579,551
177659,470,441,462
177664,513,450,402
177668,518,589,480
177672,453,633,549
177676,501,505,563
177680,513,426,440
177684,549,476,452
177688,535,555,562
177692,512,522,613
177696,487,412,546
177699,513,405,414
177703,520,542,434
177708,518,608,568
177712,524,552,585
177716,513,418,491
177720,498,396,426
177724,499,527,480
177728,496,631,596
177732,505,564,580
177736,527,439,452
177740,546,481,362
177744,486,592,498
177748,473,615,612
177753,516,512,579
177756,517,410,463
177759,517,477,430
177763,521,600,532
177767,515,612,623
177771,519,501,529
177775,519,412,396
177779,512,479,435
177783,522,588,570
177787,529,572,617
177792,529,449,532
177796,516,407,406
177800,496,513,443
177804,489,606,561
177808,483,575,593
177811,498,458,479
177814,542,446,353
177818,534,583,398
177822,473,612,614
177826,464,489,637
177830,513,376,489
177835,551,436,407
177839,537,559,507
177843,499,590,589
177847,476,484,528
177851,492,400,451
177855,504,461,397
177859,518,574,525
177863,515,583,600
177866,514,492,562
177870,525,441,444
177874,498,515,443
177879,498,572,574
177883,525,500,650
177887,520,383,554
177891,537,406,443
177895,527,546,432
177899,487,622,543
177903,474,545,559
177907,509,423,509
177911,518,441,421
177915,486,560,500
177920,443,591,609
177923,435,514,559
177927,548,435,461
177931,582,475,423
177935,556,577,518
177939,481,577,623
177943,442,460,567
177947,511,399,440
177951,549,507,390
177955,539,644,503
177959,480,613,620
177964,480,442,575
177968,519,370,441
177972,545,456,460
177976,544,582,549
177979,524,549,576
177983,493,452,459
177987,502,469,408
177991,517,528,494
177995,512,562,617
177999,483,486,605
178003,489,404,464
178008,490,468,402
178012,526,615,510
178016,515,640,604
178020,509,531,545
178024,507,428,431
178028,520,477,415
178032,502,609,523
178035,499,586,619
178038,494,425,561
178042,494,357,456
178046,523,459,426
178051,497,612,499
178055,506,583,603
178059,505,426,568
178063,507,398,454
178067,537,524,460
178071,547,661,552
178075,530,610,580
178079,521,423,486
178083,540,403,387
178087,524,542,479
178092,496,586,591
178095,467,486,573
178099,473,395,486
178103,499,456,440
178107,535,577,519
178111,523,593,584
178115,480,486,564
178119,466,422,447
178123,474,497,416
178127,525,597,539
178131,526,620,571
178136,492,479,550
178140,525,387,473
178144,537,484,471
178148,538,565,562
178151,516,511,597
178155,500,419,480
178159,515,514,357
178163,507,604,480
178167,480,607,616
178171,493,497,615
178176,511,402,475
178180,533,445,406
178184,514,573,485
178188,511,632,590
178192,500,505,582
178196,447,380,480
178200,517,438,393
178203,548,606,467
178207,504,614,626
178211,469,481,570
178215,484,416,412
178220,513,524,396
178224,528,596,564
178228,511,540,642
178232,521,424,575
178236,507,416,433
178240,501,530,447
178244,479,602,562
178248,495,544,585
178252,523,444,476
178256,526,467,401
178259,532,577,444
178263,503,609,595
178267,494,498,585
178271,496,416,422
178275,518,451,371
178279,489,592,497
178283,471,581,634
178287,507,432,596
178291,535,349,470
178295,527,459,417
178299,523,597,505
178304,497,599,577
178308,489,497,541
178312,490,402,454
178315,495,465,449
178318,525,601,549
178322,508,643,554
178326,466,488,493
178330,489,400,427
178334,512,486,459
178338,483,558,554
178342,516,530,609
178347,531,468,454
178351,521,451,406
178355,500,515,517
178359,473,542,645
178363,493,454,601
178367,560,406,433
178370,585,507,395
178373,539,619,508
178377,456,600,625
178381,459,454,548
178385,537,400,401
178390,568,553,386
178394,539,655,559
178398,504,560,608
178402,473,397,574
178406,491,370,447
178410,489,544,403
178414,469,652,533
178418,488,531,632
178422,514,396,517
178425,497,438,386
178428,450,566,428
178433,483,613,579
178437,553,484,637
178441,571,353,513
178445,529,399,426
178449,493,551,487
178453,483,593,577
178457,509,494,585
178461,538,422,445
178465,533,491,413
178469,533,608,503
178473,502,600,554
178478,518,465,539
178482,541,410,426
178485,511,544,405
178489,478,672,508
178493,447,562,618
178497,461,386,550
178501,528,365,439
178505,492,496,443
178509,488,592,555
178513,526,526,616
178518,525,407,514
178522,540,424,426
178526,515,561,469
178530,492,627,585
178534,477,554,556
178537,505,431,467
178540,541,467,417
178544,535,603,500
178548,500,606,586
178552,490,471,534
178556,517,378,417
178561,518,481,404
178565,511,591,528
178569,506,554,596
178573,509,430,523
178577,492,404,426
178581,470,507,465
178585,478,589,587
178589,509,525,623
178592,506,430,479
178595,503,470,362
178599,519,580,464
178604,486,612,622
178608,507,503,601
178612,523,368,471
178616,535,411,354
178620,523,579,468
178624,527,601,628
178628,527,478,589
178632,532,394,436
178636,527,458,418
178640,506,594,527
178644,478,595,624
178648,506,450,549
178651,543,399,409
178655,522,501,438
178659,492,597,547
178663,423,559,635
178667,423,442,554
178671,508,422,424
178675,546,549,416
178679,545,626,539
178683,534,562,576
178688,528,475,475
178692,529,446,427
178696,489,560,491
178700,479,614,545
178703,487,505,594
178706,532,363,503
178710,564,442,427
178714,539,594,499
178718,476,605,599
178722,489,467,571
178726,533,411,422
178731,534,490,453
178735,517,593,543
178739,497,549,612
178743,476,405,563
178747,487,369,438
178751,472,496,418
178755,474,592,520
178758,495,557,590
178761,512,451,525
178765,569,432,432
178769,539,536,441
178774,498,628,550
178778,497,586,571
178782,518,464,481
178786,544,458,443
178790,542,554,519
178794,502,578,597
178798,479,470,584
178802,465,386,438
178806,497,464,374
178810,546,629,466
178813,532,702,501
178817,503,611,548
178821,531,408,518
178825,526,393,484
178829,504,512,564
178833,503,517,595
178837,474,397,539
178841,452,359,450
178845,526,469,457
178849,554,574,566
178853,550,532,608
178857,497,425,495
178862,483,474,356
178866,517,666,416
178869,504,681,586
178873,505,549,614
178877,538,403,507
178881,566,402,428
178885,541,526,470
178889,514,596,559
178893,501,489,587
178897,505,428,442
178902,504,558,395
178906,484,648,520
178910,448,557,632
178914,477,438,576
178918,503,383,457
178922,505,467,431
178925,501,575,569
178929,482,541,624
178933,548,417,510
178937,569,401,410
178941,540,532,442
178946,513,642,540
178950,523,564,581
178954,526,405,488
178958,529,434,408
178962,542,591,463
178966,516,627,587
178970,489,507,576
178974,496,409,456
178978,517,467,403
178981,494,578,512
178985,492,564,628
178990,465,449,587
178994,450,393,432
178998,466,479,434
179002,507,642,532
179006,531,615,577
179010,566,456,531
179014,564,412,386
179018,536,514,427
179022,496,591,583
179026,459,550,581
179031,484,415,522
179035,520,380,443
179038,537,499,484
179042,504,599,571
179046,530,562,554
179050,546,412,473
179054,522,421,406
179058,492,553,481
179062,506,620,594
179066,522,514,567
179070,514,412,461
179075,486,459,392
179079,475,571,472
179083,470,606,592
179087,495,539,555
179091,523,486,425
179094,510,541,419
179098,530,601,559
179102,471,520,634
179106,500,383,544
179110,535,362,388
179115,538,500,438
179119,521,619,581
179123,483,544,619
179127,497,462,435
179131,511,446,447
179135,545,547,490
179139,507,595,596
179143,491,499,589
179147,503,430,444
179150,524,526,354
179154,528,620,498
179159,516,589,599
179163,497,438,588
179167,481,388,469
179171,505,521,429
179175,512,620,550
179179,493,565,622
179183,489,456,532
179187,501,426,421
179191,524,488,442
179195,488,597,523
179200,506,587,578
179204,530,449,522
179207,549,399,448
179211,509,504,473
179215,459,574,604
179219,474,532,571
179223,527,465,461
179227,535,462,403
179231,545,590,443
179235,490,609,577
179239,452,518,564
179244,480,408,493
179248,542,441,444
179252,561,562,526
179256,517,574,619
179260,484,468,559
179263,484,437,438
179267,503,564,412
179271,485,648,526
179275,507,540,634
179279,557,401,565
179283,542,359,441
179288,503,503,427
179292,506,607,582
179296,503,550,615
179300,514,452,485
179304,514,464,397
179308,513,561,477
179312,517,626,568
179316,501,552,573
179319,484,401,493
179323,489,405,415
179328,491,535,502
179332,491,592,595
179336,484,490,539
179340,507,402,461
179344,542,464,438
179348,490,568,541
179352,507,544,623
179356,522,459,538
179360,529,443,427
179364,520,524,432
179368,491,609,547
179373,473,541,616
179376,493,423,519
179380,518,419,406
179384,531,550,422
179388,531,632,549
179392,525,576,583
179396,521,438,506
179400,509,430,428
179404,503,559,445
179408,488,578,591
179412,469,471,599
179417,487,408,469
179421,527,492,409
179425,527,591,514
179429,480,562,626
179432,452,448,587
179435,512,396,470
179439,544,517,401
179443,499,638,489
179447,451,600,567
179451,467,435,575
179456,522,370,458
179460,565,456,450
179464,547,579,546
179468,541,566,602
179472,512,427,530
179476,490,412,429
179480,504,550,451
179484,521,619,567
179488,518,543,561
179491,508,445,455
179495,508,436,434
179500,469,523,518
179504,420,577,578
179508,446,507,573
179512,502,410,444
179516,544,453,432
179520,551,571,515
179524,520,584,601
179528,503,476,534
179532,472,395,414
179536,515,475,423
179540,505,577,559
179544,504,552,620
179547,518,453,502
179551,516,423,416
179555,546,521,441
179559,516,620,549
179563,481,546,576
179567,512,429,512
179571,541,432,434
179575,530,569,482
179579,506,613,579
179584,483,511,559
179588,470,421,444
179592,488,437,446
179596,486,553,523
179600,480,594,600
179603,506,511,543
179607,517,444,435
179611,537,470,433
179615,518,565,547
179619,494,570,603
179623,499,468,545
179628,516,427,426
179632,515,526,432
179636,495,627,539
179640,496,580,591
179644,513,459,496
179648,518,407,439
179652,520,505,473
179656,504,585,596
179659,466,526,610
179663,433,443,469
179667,502,457,392
179672,500,586,467
179676,486,616,600
179680,507,492,603
179684,511,387,484
179688,504,455,425
179692,486,584,512
179696,485,601,566
179700,481,478,553
179704,506,382,467
179708,538,481,439
179713,532,587,521
179716,495,552,597
179720,521,435,533
179724,539,427,413
179728,529,551,421
179732,515,620,538
179736,494,521,622
179740,479,419,519
179744,467,429,407
179748,453,563,470
179752,479,633,575
179757,466,540,582
179761,483,421,478
179765,522,450,443
179769,582,559,471
179772,551,572,594
179776,518,466,598
179780,516,402,431
179784,520,493,387
179788,507,603,510
179792,502,585,607
179796,481,454,555
179801,471,393,447
179805,498,489,432
179809,474,633,520
179813,475,584,632
179817,516,418,560
179821,519,388,428
179825,505,501,457
179828,473,590,560
179832,475,540,587
179836,518,430,481
179841,541,462,415
179845,533,562,477
179849,513,606,531
179853,476,597,548
179857,486,458,483
179861,526,429,418
179865,533,555,504
179869,503,570,585
179873,524,463,571
179877,530,396,451
179881,527,481,407
179885,502,581,556
179889,485,564,644
179893,484,469,559
179897,459,405,438
179901,457,504,455
179905,488,606,551
179909,486,545,571
179913,494,439,474
179917,526,431,411
179921,532,539,450
179926,522,633,573
179930,473,583,575
179934,482,454,463
179938,506,434,428
179941,481,534,503
179945,488,574,563
179949,524,504,580
179953,530,450,470
179957,542,478,447
179961,511,551,528
179965,459,553,608
179970,459,458,553
179974,513,394,441
179978,553,479,405
179982,528,613,516
179986,494,584,610
179990,486,439,553
179994,458,412,430
179997,423,532,449
180001,495,639,529
180005,538,589,571
180009,539,445,507
180014,546,406,433
180018,519,514,451
180022,472,596,548
180026,443,521,587
180030,472,413,475
180034,514,448,405
180038,538,571,480
180042,500,596,591
180046,471,477,570
180050,508,395,466
180054,523,466,430
180058,500,587,530
180062,489,608,613
180066,492,499,546
180070,520,434,421
180074,521,506,440
180078,528,571,562
180082,494,525,614
180086,477,434,524
180090,492,443,400
180094,493,553,438
180099,495,610,555
180103,480,548,569
180107,481,423,477
180110,532,423,405
180114,546,540,484
180118,496,578,594
180122,490,496,530
180126,497,412,448
180130,509,470,427
180134,525,590,549
180139,486,582,601
180143,477,468,541
180147,502,402,440
180151,522,467,435
180155,505,590,535
180159,486,580,601
180163,507,450,506
180166,504,431,411
180170,507,522,447
180174,493,614,533
180178,488,571,576
180183,498,430,534
180187,496,438,422
180191,453,530,481
180195,479,558,601
180199,511,490,591
180203,499,411,460
180207,483,464,388
180211,503,590,484
180215,525,601,591
180219,518,464,585
180222,492,394,439
180226,506,495,382
180230,532,590,538
180234,527,561,609
180238,497,455,560
180242,485,414,470
180246,503,506,433
180250,497,615,535
180254,470,564,604
180258,470,449,522
180262,503,433,416
180267,500,529,446
180271,508,610,549
180275,518,559,566
180279,534,435,486
180282,548,431,425
180286,527,563,449
180290,487,622,556
180294,466,521,602
180298,504,425,488
180302,546,465,432
180306,533,571,501
180311,506,591,590
180315,496,521,548
180319,461,415,445
180323,442,458,428
180327,491,573,540
180331,501,564,606
180335,515,459,540
180338,503,425,447
180342,513,499,453
180346,504,575,542
180350,479,544,585
180355,506,453,489
180359,526,452,382
180363,534,555,450
180367,487,607,584
180371,466,522,616
180375,492,422,492
180379,534,431,424
180383,530,561,480
180387,510,621,567
180391,512,496,590
180395,511,396,492
180399,477,456,423
180403,470,583,522
180407,508,582,597
180411,523,470,560
180415,524,418,418
180419,510,511,391
180423,453,619,534
180427,441,574,631
180431,479,444,533
180435,526,435,407
180440,532,541,446
180444,510,607,574
180448,511,557,594
180451,528,454,507
180455,525,462,401
180459,500,533,470
180463,450,566,599
180467,448,487,582
180471,501,412,455
180475,551,464,396
180480,546,588,490
180484,514,608,606
180488,482,492,578
180492,454,407,469
180496,505,462,454
180500,521,568,535
180504,508,571,585
180507,519,467,521
180511,524,412,426
180515,504,514,430
180519,449,612,518
180524,425,555,586
180528,522,420,505
180532,555,425,429
180536,554,536,476
180540,493,586,606
180544,430,525,620
180548,496,433,475
180552,538,470,411
180556,545,570,490
180560,523,605,614
180563,481,513,602
180568,465,404,459
180572,531,458,396
180576,529,580,489
180580,510,581,601
180584,527,474,566
180588,528,393,463
180592,500,493,429
180596,466,626,543
180600,463,595,579
180604,508,493,499
180609,523,444,414
180613,537,488,449
180617,503,551,563
180620,468,505,617
180624,442,414,524
180628,483,422,412
180632,529,547,465
180636,512,631,600
180640,480,540,610
180644,523,416,488
180648,549,430,424
180653,548,564,486
180657,514,606,582
180661,508,537,535
180665,516,426,468
180669,514,456,432
180673,495,569,526
180676,463,573,577
180680,473,453,537
180684,516,414,414
180688,514,512,421
180692,483,615,525
180697,473,593,563
180701,471,470,518
180705,481,422,444
180709,534,522,477
180713,507,609,585
180717,456,539,610
180721,487,426,498
180725,551,432,424
180729,546,529,481
180732,527,592,606
180737,504,524,567
180741,521,444,464
180745,539,456,435
180749,517,561,523
180753,503,570,613
180757,514,471,555
180761,520,434,430
180765,540,492,419
180769,509,579,532
180773,498,582,592
180777,504,497,539
180782,513,415,450
180786,484,474,456
180789,456,594,544
180793,475,617,546
180797,527,470,499
180801,541,407,434
180805,519,513,475
180809,490,596,591
180813,480,537,577
180817,513,429,458
180822,511,444,421
180826,509,552,495
180830,467,609,551
180834,471,528,546
180838,513,441,459
180842,553,456,424
180845,539,556,494
180849,495,593,557
180853,486,499,528
180857,525,412,452
180861,540,462,442
180866,534,548,539
180870,506,550,591
180874,486,441,537
180878,491,415,425
180882,504,509,439
180886,520,596,548
180890,505,564,582
180894,500,451,475
180898,518,439,406
180901,490,533,489
180905,461,595,597
180910,472,524,568
180914,522,415,462
180918,561,451,410
180922,541,549,529
180926,507,571,626
180930,502,496,574
180934,503,424,455
180938,510,479,426
180942,491,570,523
180946,459,575,593
180951,475,477,527
180955,531,450,416
180958,555,535,420
180962,540,593,537
180966,517,539,593
180970,520,451,488
180974,494,456,394
180978,475,513,490
180982,473,568,624
180986,498,524,617
180990,519,423,489
180995,517,417,424
180999,513,533,492
181003,499,612,572
181007,503,530,589
181011,514,426,471
181014,503,485,397
181018,485,609,497
181022,478,591,608
181026,507,462,576
181030,537,391,466
181035,560,486,431
181039,545,613,533
181043,511,558,625
181047,492,429,549
181051,510,396,424
181055,515,505,431
181059,497,576,579
181063,512,546,630
181067,524,476,496
181070,536,463,422
181074,526,517,492
181079,496,572,585
181083,470,540,585
181087,458,452,468
181091,495,444,422
181095,519,535,484
181099,524,572,613
181103,513,488,566
181107,507,408,445
181111,530,463,419
181115,528,580,501
181120,511,595,604
181124,500,484,584
181127,516,438,428
181131,537,522,391
181135,497,590,544
181139,501,562,624
181143,509,452,558
181147,537,438,431
181151,542,514,448
181155,509,563,562
181159,498,536,583
181164,500,425,444
181168,510,399,400
181172,514,509,491
181176,490,593,608
181180,464,549,577
181183,463,448,469
181187,509,478,401
181191,525,592,521
181195,486,572,654
181199,482,480,572
181203,491,424,447
181208,551,466,422
181212,545,579,521
181216,527,581,614
181220,523,457,566
181224,522,397,439
181228,500,452,429
181232,508,554,576
181236,518,548,627
181239,525,453,503
181243,538,437,392
181248,545,555,446
181252,494,613,598
181256,433,538,598
181260,444,454,472
181264,484,470,385
181268,551,574,480
181272,542,589,615
181276,537,493,579
181280,529,404,428
181284,528,448,376
181288,497,591,499
181293,476,624,612
181296,491,487,587
181300,511,416,447
181304,536,476,435
181308,540,578,534
181312,522,574,610
181316,510,454,536
181320,524,419,411
181324,513,522,434
181328,500,602,561
181332,480,554,599
181337,498,424,517
181341,549,411,420
181345,542,531,452
181349,496,594,590
181352,479,545,556
181356,496,437,461
181360,531,416,437
181364,511,553,481
181368,460,584,600
181372,449,563,535
181377,507,416,495
181381,554,408,470
181385,544,514,550
181389,526,591,598
181393,528,579,498
181397,517,466,411
181401,505,476,456
181405,504,538,571
181408,499,515,600
181412,508,426,504
181416,523,417,410
181421,534,541,443
181425,507,667,532
181429,481,590,594
181433,498,392,508
181437,516,396,383
181441,504,504,455
181445,502,593,588
181449,495,547,568
181453,488,419,499
181457,506,410,422
181462,515,508,502
181465,509,560,613
181469,486,471,578
181473,502,423,439
181477,524,505,408
181481,506,654,480
181485,486,674,536
181489,503,497,546
181493,541,366,453
181497,559,449,468
181501,531,562,580
181506,494,549,598
181510,487,460,501
181514,510,423,427
181518,521,521,455
181521,502,622,579
181525,508,549,595
181529,518,404,502
181533,530,403,413
181537,512,523,491
181541,475,580,582
181545,484,520,546
181550,515,433,465
181554,537,504,418
181558,522,570,518
181562,470,564,609
181566,470,487,538
181570,490,429,419
181574,537,450,433
181577,548,541,534
181581,494,586,577
181585,491,479,533
181590,513,407,423
181594,531,480,473
181598,518,559,585
181602,508,518,603
181606,507,437,488
181610,529,438,414
181614,537,555,482
181618,507,625,560
181622,494,542,583
181626,520,423,476
181630,519,429,430
181634,475,536,518
181638,423,583,589
181642,490,545,517
181646,528,459,430
181650,557,468,404
181654,549,563,512
181658,495,615,563
181662,500,514,525
181666,520,398,436
181670,536,439,475
181675,510,537,583
181679,501,526,609
181683,505,438,540
181687,507,417,438
181690,519,518,459
181694,505,595,587
181698,489,560,591
181702,480,463,474
181706,479,451,396
181710,493,560,455
181714,502,626,572
181719,506,518,598
181723,510,433,469
181727,505,465,411
181731,492,568,501
181735,523,617,575
181739,524,558,531
181743,537,445,442
181746,556,462,439
181750,535,548,547
181754,507,563,603
181758,481,480,525
181763,494,453,418
181767,515,491,470
181771,505,554,589
181775,464,557,601
181779,466,499,472
181783,515,454,398
181787,519,566,442
181791,488,602,591
181795,481,506,615
181799,488,418,484
181803,532,425,430
181807,515,541,500
181811,503,602,589
181815,502,550,518
181819,515,506,424
181823,537,496,452
181827,533,568,507
181831,514,585,590
181835,520,462,564
181839,524,388,445
181843,522,459,451
181848,509,589,540
181852,494,608,565
181856,497,476,527
181859,505,425,422
181863,519,512,452
181867,523,587,577
181871,474,564,594
181875,439,489,482
181879,474,458,395
181883,533,535,480
181888,542,610,564
181892,532,554,570
181896,526,479,470
181900,519,461,444
181904,512,508,530
181908,505,555,598
181912,512,500,564
181915,492,451,424
181919,483,508,401
181923,517,583,536
181927,516,555,616
181932,514,486,539
181936,515,412,438
181940,487,489,427
181944,484,572,563
181948,507,544,603
181952,546,473,495
181956,552,476,406
181960,529,541,456
181964,504,564,590
181968,484,524,583
181971,459,438,478
181976,506,460,429
181980,543,544,503
181984,509,643,581
181988,473,570,559
181992,515,497,421
181996,543,489,392
182000,523,534,541
182004,489,523,652
182008,494,457,534
182012,516,403,430
182017,510,445,440
182021,501,580,543
182025,490,580,626
182028,512,521,483
182031,527,519,362
182035,511,473,463
182039,486,503,608
182043,491,500,577
182047,489,448,503
182051,521,440,428
182055,496,575,455
182060,482,605,606
182064,499,486,607
182068,520,420,445
182072,508,478,396
182076,493,544,500
182080,472,559,593
182083,509,509,544
182086,533,410,455
182090,547,445,441
182094,538,582,546
182098,528,671,563
182103,507,518,513
182107,495,434,403
182111,525,495,456
182115,529,545,598
182119,505,525,625
182123,508,432,518
182127,521,397,399
182131,480,476,446
182135,464,593,572
182139,489,581,575
182142,478,488,436
182147,505,473,396
182151,514,537,495
182155,509,539,633
182159,487,508,581
182163,498,494,433
182167,517,524,387
182171,523,539,503
182175,518,524,616
182179,494,458,572
182183,529,413,464
182188,545,544,393
182192,527,644,542
182195,501,554,645
182199,508,429,541
182203,496,398,432
182207,486,494,459
182211,498,565,568
182215,487,523,575
182219,467,436,484
182223,500,422,416
182227,535,532,471
182232,489,586,575
182236,486,525,585
182240,542,443,494
182244,552,440,438
182248,535,575,491
182251,507,623,595
182255,508,491,571
182259,519,391,449
182263,526,491,414
182267,508,649,499
182272,490,618,571
182276,480,513,519
182280,490,410,454
182284,522,520,435
182288,510,712,529
182292,504,568,635
182296,512,399,526
182300,511,395,382
182304,505,516,445
182307,476,555,603
182311,486,489,602
182316,521,484,441
182320,534,490,393
182324,496,499,526
182328,483,513,640
182332,513,435,590
182336,546,369,454
182340,552,438,398
182344,519,528,483
182348,461,584,561
182352,480,546,553
182356,527,439,447
182361,532,454,424
182364,511,553,562
182368,485,544,630
182372,501,448,545
182376,519,427,408
182380,504,490,448
182384,477,591,563
182388,489,556,595
182392,521,489,465
182396,541,489,373
182401,502,545,461
182405,471,549,582
182409,507,479,622
182413,522,397,493
182417,534,445,411
182420,497,560,498
182424,504,597,581
182428,516,479,580
182432,525,380,460
182436,523,454,420
182440,516,609,528
182445,483,596,611
182449,488,498,526
182453,527,401,401
182457,529,465,412
182461,496,565,551
182465,477,550,622
182469,496,472,529
182473,502,424,435
182476,502,484,454
182479,500,623,534
182483,517,585,572
182488,540,457,518
182492,539,429,455
182496,524,479,524
182500,487,576,583
182504,494,523,587
182508,534,428,463
182512,543,443,416
182516,526,533,513
182520,508,557,601
182524,490,495,586
182529,484,441,472
182532,496,535,410
182536,489,647,524
182540,488,587,598
182544,482,474,527
182548,517,398,436
182552,529,495,410
182556,513,619,533
182560,484,555,610
182564,476,423,545
182568,526,410,440
182573,541,535,425
182577,513,633,554
182581,488,570,598
182585,480,467,489
182588,503,468,418
182591,512,565,476
182595,496,583,585
182599,501,513,563
182603,535,418,460
182607,533,438,408
182611,514,566,512
182616,495,564,629
182620,481,500,551
182624,504,466,424
182628,527,475,430
182632,502,549,529
182636,487,529,623
182640,505,425,524
182644,533,405,431
182647,520,517,450
182651,502,621,541
182656,487,540,579
182660,493,428,484
182664,520,427,417
182668,517,555,459
182672,508,588,606
182676,524,485,617
182680,521,389,470
182684,520,414,420
182688,513,539,483
182692,481,633,582
182696,495,526,563
182701,511,415,439
182704,510,477,402
182708,483,573,534
182712,492,592,592
182716,522,475,550
182720,532,382,442
182724,511,446,453
182728,493,583,536
182732,480,602,578
182736,512,488,514
182740,543,458,443
182745,534,508,512
182749,500,546,589
182753,465,511,621
182757,474,434,483
182760,543,422,441
182764,550,542,499
182768,517,588,609
182772,496,517,575
182776,494,482,420
182780,502,499,400
182785,490,559,536
182789,502,577,603
182793,512,496,556
182797,526,432,438
182801,524,461,444
182805,481,551,535
182809,470,539,599
182813,509,439,522
182816,531,400,401
182820,523,507,443
182824,512,600,561
182829,504,551,631
182833,508,458,520
182837,523,416,422
182841,509,496,488
182845,493,587,577
182849,479,544,569
182853,508,469,464
182857,510,463,392
182861,523,553,474
182865,516,610,591
182870,515,561,571
182873,527,437,478
182877,530,444,422
182881,509,581,458
182885,490,664,556
182889,504,497,561
182893,523,388,451
182897,524,450,439
182901,497,549,581
182905,475,556,629
182909,481,439,543
182914,511,426,415
182918,522,504,469
182922,520,587,598
182926,502,543,609
182929,500,441,462
182933,501,442,379
182937,520,558,456
182941,501,629,586
182945,502,554,595
182949,490,434,460
182953,508,454,431
182958,532,553,510
182962,516,564,604
182966,512,483,570
182970,530,427,450
182974,514,484,419
182978,485,609,529
182982,490,570,634
182985,510,460,568
182989,513,402,430
182993,519,507,415
182998,497,593,541
183002,502,549,585
183006,516,439,493
183010,524,418,409
183014,509,530,471
183018,503,628,558
183022,490,590,554
183026,492,454,482
183030,485,466,418
183034,506,565,488
183038,500,607,559
183042,506,516,542
183046,521,395,491
183050,528,434,428
183054,491,547,521
183058,478,575,597
183062,494,506,542
183066,524,456,445
183070,550,483,432
183074,531,595,536
183078,497,560,608
183083,454,438,529
183087,470,406,435
183091,530,482,449
183095,516,612,525
183098,511,589,593
183102,526,463,486
183106,527,467,392
183110,514,573,444
183114,502,581,593
183118,493,523,574
183122,517,407,512
183127,506,441,455
183131,490,545,512
183135,489,605,583
183139,503,537,553
183143,525,420,472
183147,530,460,450
183151,495,591,513
183154,493,636,551
183158,514,502,538
183162,536,445,447
183166,522,482,456
183171,503,567,542
183175,487,545,604
183179,472,451,503
183183,515,430,414
183187,515,521,489
183191,497,604,583
183195,497,580,585
183199,506,442,487
183203,513,434,397
183206,512,513,487
183209,495,557,591
183214,517,525,557
183218,540,494,408
183222,511,538,356
183226,484,594,509
183230,495,551,644
183234,518,454,579
183238,533,408,440
183242,519,470,409
183246,501,567,510
183250,477,578,612
183255,494,462,541
183259,521,428,417
183262,539,514,441
183265,503,581,582
183269,473,530,599
183273,501,442,489
183277,518,427,403
183281,516,534,461
183285,484,585,597
183289,473,528,593
183293,513,455,476
183298,534,459,406
183302,509,534,499
183306,503,567,606
183310,522,498,572
183314,533,443,441
183317,531,497,378
183320,501,573,512
183324,485,564,621
183328,512,454,544
183332,511,412,420
183336,508,495,442
183341,489,598,555
183345,469,554,611
183349,495,441,521
183353,541,415,444
183357,535,529,443
183361,502,605,570
183365,462,533,605
183369,507,427,466
183372,539,457,370
183375,517,543,479
183379,489,569,604
183384,499,497,596
183388,517,416,487
183392,531,448,420
183396,506,563,489
183400,492,602,575
183404,483,549,494
183408,512,467,436
183412,517,520,440
183416,521,601,571
183420,512,549,622
183425,519,440,519
183428,523,410,425
183431,512,504,434
183435,488,592,570
183439,477,559,621
183443,471,458,494
183447,494,441,385
183451,523,574,445
183455,524,589,617
183459,501,495,606
183463,504,391,492
183468,505,414,413
183472,507,560,459
183476,513,615,563
183480,513,535,586
183483,518,441,459
183486,520,449,424
183490,510,539,526
183494,485,576,599
183498,478,495,530
183502,489,410,422
183506,513,489,434
183511,506,588,538
183515,504,549,611
183519,486,457,518
183523,498,454,411
183527,518,545,448
183531,526,607,572
183535,510,535,625
183538,510,419,503
183542,538,403,400
183546,532,521,439
183550,491,607,552
183555,502,528,588
183559,541,416,467
183563,538,444,437
183567,531,541,516
183571,510,573,596
183575,498,496,571
183579,504,412,446
183583,508,482,427
183587,467,582,528
183591,459,575,604
183595,485,482,544
183599,522,442,441
183603,539,507,446
183607,527,614,555
183611,497,564,625
183615,494,433,511
183619,513,412,403
183623,513,501,431
183627,489,605,550
183631,506,546,616
183635,524,403,529
183640,514,431,427
183644,504,528,474
183648,479,612,568
183651,512,572,571
183655,528,435,480
183659,536,428,428
183663,536,523,519
183667,509,541,586
183671,507,466,548
183675,503,396,449
183680,468,472,386
183684,484,612,513
183688,475,559,621
183692,505,448,526
183696,546,426,402
183700,524,538,421
183704,497,633,583
183707,470,552,646
183711,508,430,505
183715,542,402,429
183719,534,499,484
183724,485,589,565
183728,471,609,559
183732,512,463,501
183736,547,413,433
183740,548,527,475
183744,523,603,584
183748,503,499,609
183752,507,425,443
183756,513,476,410
183760,485,595,536
183763,477,620,610
183768,459,511,542
183772,501,426,410
183776,528,459,432
183780,533,568,528
183784,482,571,584
183788,489,444,524
183792,523,389,443
183796,539,482,485
183800,541,605,566
183804,529,584,589
183809,517,489,465
183813,495,526,383
183817,501,520,481
183820,496,518,592
183824,506,466,586
183828,522,406,442
183832,525,445,397
183836,507,567,524
183840,487,605,631
183844,489,502,567
183848,515,422,451
183853,507,455,426
183857,493,588,536
183861,507,597,585
183865,512,467,544
183869,500,395,433
183873,513,468,440
183876,511,571,543
183880,500,584,583
183884,515,513,493
183888,535,443,401
183892,538,523,418
183897,510,599,561
183901,490,527,600
183905,484,414,500
183909,492,428,417
183913,507,549,497
183917,498,618,561
183921,457,553,547
183925,498,425,460
183929,544,455,420
183932,517,556,526
183937,510,569,574
183941,499,483,559
183945,518,433,452
183949,526,491,450
183953,506,586,556
183957,507,575,608
183961,490,453,522
183965,505,417,419
183969,516,518,453
183973,512,579,569
183977,510,510,616
183982,500,417,491
183986,496,424,384
183989,496,546,463
183993,475,631,579
183997,503,576,568
184001,531,473,479
184005,524,432,455
184009,514,504,530
184013,494,544,629
184017,500,461,561
184022,533,407,443
184026,542,461,444
184030,496,585,518
184034,471,573,606
184038,495,447,560
184042,514,417,392
184045,505,521,410
184049,493,610,532
184053,511,587,560
184057,541,460,496
184061,539,426,451
184066,512,498,488
184070,475,590,570
184074,466,597,547
184078,515,467,475
184082,550,438,402
184086,518,526,517
184090,497,576,615
184094,507,507,591
184098,509,436,472
184101,497,458,430
184105,454,568,509
184110,454,596,601
184114,510,468,565
184118,559,412,395
184122,554,520,374
184126,513,617,548
184130,480,559,646
184134,512,429,552
184138,534,431,384
184142,521,557,410
184146,498,643,552
184151,493,573,563
184155,519,427,491
184158,534,402,407
184162,518,517,458
184166,513,572,633
184170,498,490,642
184174,488,403,493
184178,507,452,407
184182,485,586,491
184186,470,622,625
184190,471,574,529
184195,485,461,426
184199,508,437,451
184203,542,531,536
184207,529,555,544
184211,509,493,489
184214,532,416,450
184218,510,463,472
184222,489,575,556
184226,513,577,610
184230,526,484,503
184235,538,475,402
184239,512,547,438
184243,495,598,584
184247,498,518,625
184251,499,386,506
184255,501,413,433
184259,498,541,472
184263,489,624,560
184267,490,547,574
184270,527,409,446
184274,513,488,355
184279,456,590,467
184283,478,572,604
184287,524,453,577
184291,558,401,463
184295,553,469,446
184299,534,568,538
184303,508,568,600
184307,471,467,534
184311,481,418,459
184315,517,507,456
184320,519,609,557
184324,504,577,634
184327,518,465,524
184331,518,460,397
184335,497,552,410
184339,468,579,552
184343,453,505,573
184347,486,408,467
184351,537,461,400
184355,531,581,483
184359,500,618,582
184364,484,536,554
184368,515,409,443
184372,545,440,410
184376,533,586,526
184380,494,583,621
184383,470,462,566
184387,503,413,431
184391,538,494,420
184395,535,592,554
184399,521,561,589
184403,516,476,503
184408,499,438,426
184412,499,514,467
184416,489,620,568
184420,510,526,625
184424,515,394,516
184428,519,436,396
184432,506,568,482
184436,463,585,575
184439,450,496,561
184443,491,419,453
184448,533,457,404
184452,553,556,484
184456,532,581,612
184460,503,494,575
184464,474,451,413
184468,506,502,414
184472,515,578,548
184476,499,559,626
184480,499,450,543
184484,526,398,433
184488,528,525,419
184493,506,618,567
184496,505,537,626
184499,512,406,508
184503,522,442,363
184507,514,538,411
184511,509,563,593
184515,487,527,610
184519,472,437,477
184523,471,460,392
184527,486,549,506
184531,505,583,605
184536,521,488,605
184540,529,397,460
184544,530,445,407
184548,523,570,510
184551,462,596,603
184554,461,493,563
184558,520,430,430
184562,549,514,408
184566,517,617,506
184570,512,588,619
184574,507,457,576
184579,492,438,411
184583,521,540,402
184587,525,583,585
184591,496,512,640
184595,504,412,530
184599,530,446,394
184603,521,563,472
184607,498,619,591
184610,454,519,593
184614,471,391,485
184619,503,412,434
184623,519,550,482
184627,533,591,566
184631,524,515,531
184635,501,451,450
184639,499,489,401
184643,499,571,497
184647,500,563,536
184651,493,477,529
184655,528,404,473
184659,534,468,471
184664,515,597,558
184667,514,580,604
184671,514,450,539
184675,499,407,403
184679,487,509,435
184683,485,608,564
184687,488,559,620
184691,503,468,493
184695,537,475,389
184699,522,548,459
184704,507,573,582
184708,508,487,580
184712,535,412,447
184716,530,492,406
184720,485,595,499
184723,466,588,568
184727,507,483,501
184731,526,407,434
184735,550,468,442
184739,523,604,539
184743,507,604,628
184748,506,477,556
184752,491,433,435
184756,471,528,418
184760,502,622,519
184764,505,547,596
184768,506,435,493
184772,492,433,385
184776,508,536,446
184779,507,596,598
184783,510,536,598
184787,508,434,482
184792,505,427,400
184796,518,556,477
184800,502,621,613
184804,488,510,599
184808,507,419,460
184812,529,445,411
184816,530,564,504
184820,509,590,620
184824,507,479,543
184828,516,416,415
184833,516,491,411
184836,516,612,531
184840,505,580,600
184844,507,440,534
184848,529,398,442
184852,525,501,468
184856,489,600,544
184860,480,542,563
184864,490,450,466
184868,463,464,424
184872,445,557,471
184877,487,621,575
184881,518,525,599
184885,527,413,470
184889,521,446,425
184892,504,588,482
184896,480,604,595
184900,530,482,567
184904,547,408,441
184908,531,479,413
184912,512,595,533
184916,493,585,622
184921,506,450,560
184925,514,408,423
184929,521,501,446
184933,494,623,520
184937,487,567,569
184941,515,433,519
184945,518,414,415
184948,518,529,449
184952,500,618,565
184956,490,556,582
184961,495,431,481
184965,495,448,412
184969,491,574,464
184973,500,620,586
184977,507,513,586
184981,501,409,472
184985,533,456,405
184989,529,573,518
184993,520,577,614
184997,520,464,560
185001,526,395,430
185005,514,473,403
185009,490,588,529
185013,469,578,587
185017,489,466,516
185021,539,449,403
185025,538,537,458
185029,518,603,549
185033,493,551,597
185037,503,444,528
185041,516,444,433
185046,500,528,485
185050,475,581,587
185054,483,509,564
185058,499,418,464
185061,510,462,416
185065,522,582,500
185069,515,590,602
185073,484,494,577
185077,526,422,459
185081,529,471,418
185085,483,589,490
185090,481,575,600
185094,501,462,543
185098,509,407,422
185102,515,494,422
185106,490,609,533
185110,503,560,619
185114,516,430,540
185117,526,410,427
185121,505,526,434
185125,480,642,567
185129,487,567,610
185134,502,444,500
185138,528,436,389
185142,527,532,452
185146,485,574,571
185150,458,485,559
185154,514,409,476
185158,543,471,428
185162,524,604,483
185166,495,623,598
185170,497,487,562
185174,505,393,439
185178,533,492,385
185182,527,624,522
185186,503,565,636
185190,510,437,560
185194,525,400,453
185198,506,506,446
185202,497,612,560
185206,481,560,602
185210,502,446,499
185214,520,428,423
185219,497,543,463
185223,515,601,558
185227,517,508,566
185230,497,403,473
185234,505,435,415
185238,496,568,480
185242,491,604,582
185246,494,536,536
185250,513,457,395
185254,534,485,431
185259,512,568,536
185263,497,555,619
185267,515,443,573
185271,528,389,443
185275,520,483,426
185279,497,597,531
185283,482,573,592
185286,501,450,536
185290,513,413,449
185294,536,516,444
185298,505,590,550
185303,462,544,590
185307,505,435,475
185311,531,435,388
185315,503,553,452
185319,482,620,540
185323,492,566,553
185327,518,442,452
185331,534,422,433
185335,515,520,525
185339,494,548,595
185342,507,455,541
185347,531,415,406
185351,527,489,392
185355,489,590,522
185359,476,574,611
185363,505,465,553
185367,501,419,438
185371,525,516,452
185375,540,601,552
185379,503,558,606
185383,497,451,519
185388,511,478,347
185392,504,562,419
185396,496,584,612
185399,510,518,658
185403,493,403,518
185407,525,413,438
185411,528,544,481
185415,503,604,593
185419,500,506,600
185423,506,407,476
185427,512,459,424
185432,511,566,532
185436,524,585,617
185440,518,487,553
185444,492,395,429
185448,496,467,421
185452,495,590,547
185455,507,570,618
185459,515,453,549
185463,501,427,414
185467,522,546,429
185472,511,608,564
185476,501,537,617
185480,494,430,489
185484,515,442,409
185488,518,541,498
185492,496,595,604
185496,497,542,571
185500,511,463,457
185504,530,452,403
185508,498,529,476
185511,467,562,574
185516,481,488,561
185520,550,406,461
185524,546,467,429
185528,490,596,518
185532,475,579,602
185536,486,467,558
185540,527,408,453
185544,539,506,437
185548,499,617,548
185552,496,605,563
185556,501,479,502
185561,518,399,438
185565,544,491,448
185568,510,578,558
185572,468,493,634
185576,484,378,515
185580,532,406,422
185584,525,534,470
185588,503,598,559
185592,487,511,573
185596,536,414,464
185601,534,469,408
185605,467,630,502
185609,486,649,593
185613,499,489,555
185617,512,396,445
185621,525,492,420
185624,510,627,511
185628,490,591,590
185632,522,446,549
185636,532,403,425
185640,529,518,432
185645,491,638,558
185649,461,607,593
185653,517,443,525
185657,537,399,432
185661,533,497,480
185665,530,577,582
185669,506,520,593
185673,495,417,487
185677,485,450,420
185680,489,567,492
185684,474,609,593
185689,468,523,541
185693,495,457,452
185697,533,506,410
185701,526,599,503
185705,498,582,575
185709,486,467,552
185713,550,411,450
185717,557,488,425
185721,496,615,528
185725,480,595,606
185730,507,428,542
185734,536,371,421
185737,533,498,431
185740,525,592,597
185744,498,521,631
185748,518,415,494
185752,526,448,398
185756,514,566,444
185760,497,609,586
185764,456,515,586
185768,472,397,494
185773,462,410,431
185777,480,540,498
185781,516,589,586
185785,536,506,567
185789,541,441,461
185793,535,500,440
185796,519,600,525
185800,506,572,596
185804,505,442,560
185808,521,387,433
185812,538,481,415
185817,516,591,552
185821,477,565,619
185825,486,470,518
185829,517,446,427
185833,499,561,467
185837,486,634,552
185841,497,575,568
185845,504,455,468
185849,495,445,427
185852,509,543,472
185857,482,602,592
185861,482,523,615
185865,520,414,495
185869,533,450,433
185873,538,573,499
185877,521,606,582
185881,511,479,554
185885,519,401,434
185889,519,502,428
185893,493,586,525
185897,479,556,599
185902,474,444,534
185906,508,427,393
185909,526,529,419
185913,518,593,580
185917,493,540,624
185921,498,460,493
185925,503,443,430
185929,499,536,499
185933,486,581,606
185937,469,512,574
185942,483,433,466
185946,532,485,390
185950,536,569,519
185954,512,580,626
185958,499,469,590
185962,514,381,458
185965,540,444,394
185969,530,600,463
185973,507,630,596
185977,492,466,572
185981,494,382,448
185986,516,470,450
185990,527,588,567
185994,507,581,610
185998,512,445,531
186002,534,418,412
186006,527,526,459
186010,489,607,557
186014,478,560,591
186018,480,430,509
186021,512,420,445
186025,523,554,485
186030,506,603,574
186034,516,541,512
186038,523,441,467
186042,515,432,456
186046,495,534,549
186050,499,566,631
186054,513,486,570
186058,531,438,436
186062,528,492,439
186066,503,599,529
186071,492,589,600
186075,508,445,554
186078,524,391,430
186082,525,489,430
186086,508,579,570
186090,490,556,580
186094,494,470,471
186098,514,440,436
186102,512,518,482
186106,493,597,565
186110,480,532,589
186115,505,423,496
186119,523,462,402
186123,517,569,505
186127,498,611,590
186131,493,512,585
186134,506,422,461
186138,513,456,426
186142,504,571,511
186146,492,576,593
186150,494,466,539
186155,504,406,436
186159,510,498,420
186163,499,631,517
186167,489,622,562
186171,496,463,548
186175,510,402,456
186179,512,486,464
186183,498,581,556
186187,487,561,566
186190,497,447,511
186194,511,418,434
186199,510,535,475
186203,498,590,587
186207,494,502,587
186211,506,404,467
186215,516,445,404
186219,511,570,482
186223,494,602,592
186227,491,500,560
186231,509,413,448
186235,514,470,415
186240,503,582,514
186244,485,580,601
186247,495,475,541
186251,510,420,424
186255,510,496,417
186259,505,593,525
186263,497,554,593
186267,503,440,509
186271,518,420,399
186275,513,568,376
186279,498,698,509
186284,480,568,608
186288,488,398,509
186292,510,385,431
186296,511,507,501
186300,505,560,600
186303,503,488,576
186307,509,409,456
186311,524,452,410
186315,511,560,497
186319,487,584,573
186323,484,495,499
186328,507,425,401
186332,524,487,412
186336,509,596,540
186340,493,574,605
186344,496,452,540
186348,506,410,429
186352,505,503,428
186356,499,595,537
186359,492,547,587
186363,500,435,497
186368,509,430,412
186372,508,538,463
186376,493,603,568
186380,488,535,582
186384,502,436,470
186388,510,450,390
186392,495,562,466
186396,479,591,576
186400,494,490,558
186404,512,406,439
186408,519,459,388
186413,507,582,476
186416,482,589,587
186420,488,478,555
186424,514,420,440
186428,519,499,428
186432,504,598,523
186436,491,562,553
186440,497,446,498
186444,515,433,419
186448,518,547,456
186452,502,632,579
186457,491,574,604
186461,504,466,499
186465,519,465,419
186469,514,567,477
186472,500,612,587
186475,496,518,583
186479,511,424,470
186483,522,477,417
186487,513,600,499
186491,498,611,594
186496,501,498,560
186500,517,422,443
186504,522,487,419
186508,506,600,520
186512,495,593,594
186516,503,484,532
186520,516,440,430
186524,510,525,448
186527,496,613,545
186530,490,571,585
186534,510,467,492
186539,524,453,404
186543,519,546,444
186547,499,613,556
186551,500,555,575
186555,517,456,460
186559,525,468,396
186563,519,569,466
186567,506,603,575
186571,505,526,560
186575,520,446,441
186579,524,483,395
186584,511,582,487
186587,499,595,576
186591,506,505,529
186595,520,441,414
186599,524,499,407
186603,507,591,513
186607,497,575,579
186611,509,480,510
186615,523,441,407
186619,522,515,425
186624,505,590,539
186628,499,549,578
186632,511,450,479
186636,525,445,392
186640,518,539,446
186643,502,595,561
186647,502,534,569
186651,517,443,457
186655,524,456,396
186659,517,550,479
186663,504,583,578
186668,500,505,549
186672,517,431,435
186676,528,474,403
186680,515,567,505
186684,498,570,595
186688,509,477,532
186692,523,424,425
186696,523,488,432
186699,504,575,545
186703,494,555,605
186707,510,459,518
186712,526,433,413
186716,524,514,445
186720,506,579,560
186724,502,528,586
186728,518,434,478
186732,526,437,399
186736,516,534,468
186740,500,581,576
186744,501,509,567
186748,514,423,457
186753,522,451,409
186756,513,547,497
186760,500,564,588
186764,506,479,548
186768,522,414,431
186772,525,470,408
186776,508,566,515
186780,499,558,594
186784,505,462,518
186788,523,415,403
186792,520,485,418
186797,501,567,543
186801,497,534,588
186805,508,432,478
186809,523,418,391
186812,519,514,461
186816,504,577,565
186820,503,515,575
186824,515,422,488
186828,522,440,430
186832,513,540,503
186836,497,576,603
186841,500,499,585
186845,512,423,474
186849,519,461,433
186853,508,560,531
186857,498,571,617
186861,506,481,570
186864,523,428,458
186867,521,492,447
186871,506,583,560
186875,499,562,621
186880,508,465,541
186884,521,433,444
186888,515,513,472
186892,499,585,590
186896,494,540,621
186900,506,442,515
186904,518,440,429
186908,512,536,490
186912,495,586,601
186916,498,520,601
186920,514,432,486
186924,523,457,428
186928,511,557,511
186932,496,579,610
186936,500,496,576
186940,516,427,459
186944,518,477,429
186948,505,575,531
186952,496,574,607
186956,506,477,542
186960,521,432,433
186964,520,505,444
186969,501,592,561
186973,494,561,610
186977,504,463,521
186980,519,444,430
186984,517,533,469
186988,501,599,579
186992,496,541,597
186996,509,446,490
187000,518,454,417
187004,512,554,490
187009,497,593,596
187013,502,515,580
187017,513,432,467
187021,516,470,423
187025,503,571,520
187029,492,582,607
187033,500,487,561
187036,513,426,447
187040,514,488,434
187044,502,584,549
187048,494,570,621
187053,504,470,541
187057,520,437,433
187061,515,522,456
187065,497,602,575
187069,488,557,615
187073,506,458,517
187077,519,450,430
187081,513,541,483
187085,497,594,598
187089,498,524,602
187092,513,433,490
187097,520,459,427
187101,510,561,508
187105,501,590,612
187109,504,507,579
187113,519,433,462
187117,522,480,433
187121,509,577,528
187125,495,574,606
187129,502,476,546
187133,513,427,433
187138,513,498,437
187142,502,585,549
187146,494,558,606
187149,507,455,521
187153,518,432,420
187157,511,518,458
187161,493,591,578
187165,492,542,603
187169,507,445,499
187173,517,449,420
187177,511,545,484
187182,497,590,594
187186,499,518,587
187190,514,433,476
187194,516,465,426
187198,498,566,517
187202,493,582,612
187205,503,491,567
187209,519,425,451
187213,521,486,433
187217,506,580,540
187222,494,567,607
187226,502,468,539
187230,515,432,430
187234,513,510,443
187238,499,595,562
187242,493,559,604
187246,503,457,507
187250,517,442,417
187254,513,533,466
187258,498,591,584
187261,495,527,599
187266,510,435,491
187270,519,452,425
187274,511,554,498
187278,498,591,603
187282,495,506,581
187286,512,426,462
187290,519,476,428
187294,502,581,531
187298,489,589,616
187302,499,488,557
187307,517,431,443
187311,518,499,435
187315,502,589,544
187318,492,562,606
187322,501,457,527
187326,513,429,424
187330,515,520,454
187334,498,596,570
187338,488,543,602
187342,503,440,502
187346,523,441,421
187351,518,541,477
187355,499,591,591
187359,497,520,594
187363,512,433,483
187367,520,460,419
187371,510,560,503
187374,495,583,603
187378,499,497,567
187382,514,428,451
187386,517,481,428
187390,503,581,536
187395,492,576,608
187399,501,471,542
187403,516,423,432
187407,514,502,441
187411,499,591,557
187415,492,554,608
187419,501,450,522
187423,515,434,428
187427,510,529,468
187430,492,595,584
187435,490,534,604
187439,507,435,501
187443,519,449,422
187447,511,554,490
187451,498,595,598
187455,501,517,586
187459,517,436,473
187463,521,472,429
187467,507,572,522
187471,495,584,610
187475,502,492,563
187480,515,431,447
187484,516,493,434
187487,502,587,545
187491,495,569,611
187495,504,467,535
187499,518,432,429
187503,515,512,455
187507,500,590,570
187511,495,547,601
187515,505,446,498
187520,516,441,411
187524,512,535,464
187528,498,591,577
187532,495,520,584
187536,509,430,475
187540,520,455,415
187543,509,558,496
187547,497,587,598
187551,500,502,569
187555,514,427,455
187559,517,476,426
187564,503,578,528
187568,490,579,611
187572,497,482,553
187576,517,431,444
187580,518,502,444
187584,504,589,554
187588,498,558,603
187592,507,455,516
187596,519,432,420
187599,516,522,456
187603,500,593,573
187608,494,540,597
187612,506,442,492
187616,518,444,413
187620,513,543,480
187624,499,588,590
187628,498,514,584
187632,512,431,471
187636,521,465,419
187640,510,567,507
187644,489,583,602
187649,496,491,564
187653,517,429,445
187656,521,488,431
187660,505,583,538
187664,490,570,608
187668,501,468,540
187672,518,430,433
187676,520,508,451
187680,503,591,566
187684,490,553,604
187688,503,453,507
187693,516,441,418
187697,516,533,465
187701,503,591,578
187705,497,528,590
187709,508,436,479
187712,519,454,412
187716,511,556,490
187720,497,589,595
187724,497,508,574
187728,512,429,454
187732,519,472,419
187737,507,575,517
187741,496,579,601
187745,500,482,548
187749,514,427,433
187753,519,495,433
187757,504,590,545
187761,495,565,605
187765,501,461,525
187768,514,431,426
187772,513,516,455
187777,496,594,572
187781,489,545,604
187785,502,443,498
187789,514,443,413
187793,506,539,474
187797,498,588,587
187801,498,517,585
187805,508,431,470
187809,521,462,412
187813,513,564,502
187817,498,580,602
187822,499,486,563
187825,513,417,446
187829,517,472,422
187833,500,573,525
187837,493,564,602
187841,502,466,539
187845,518,421,431
187849,518,495,444
187853,502,580,555
187857,492,547,606
187862,504,442,515
187866,518,432,422
187870,514,530,465
187874,498,593,579
187878,493,524,597
187881,507,424,491
187885,521,443,412
187889,514,550,482
187893,497,587,592
187897,495,500,577
187901,511,416,459
187906,520,463,416
187910,506,571,511
187914,495,577,599
187918,498,476,549
187922,518,417,436
187926,523,488,423
187930,507,584,535
187934,492,565,604
187937,502,464,532
187941,517,431,423
187945,515,515,444
187950,499,593,564
187954,494,548,601
187958,507,447,505
187962,521,445,419
187966,514,546,474
187970,497,598,584
187974,497,522,587
187978,513,427,473
187982,520,453,412
187986,508,559,492
187991,495,582,592
187994,501,489,564
187998,516,418,448
188002,521,475,417
188006,508,576,520
188010,498,570,604
188014,503,470,546
188018,513,421,431
188022,512,493,434
188026,499,583,547
188030,493,556,600
188035,507,451,517
188039,523,430,421
188043,515,525,460
188047,499,594,573
188050,498,532,597
188054,510,430,491
188058,521,444,414
188062,513,554,481
188066,498,595,590
188070,496,509,580
188075,512,420,464
188079,521,460,415
188083,508,566,506
188087,493,576,600
188091,496,480,559
188095,511,419,447
188099,513,483,429
188103,501,582,537
188106,490,565,600
188110,503,459,531
188114,521,424,425
188119,521,507,441
188123,503,589,556
188127,492,545,598
188131,505,442,504
188135,519,436,414
188139,513,534,463
188143,494,593,575
188147,492,525,584
188151,506,432,478
188155,516,454,410
188160,506,557,485
188163,492,587,592
188167,494,499,576
188171,510,423,457
188175,515,473,414
188179,502,574,515
188183,490,573,602
188187,498,475,542
188191,512,422,432
188195,512,495,431
188199,493,588,542
188204,491,560,599
188208,506,455,517
188212,519,430,416
188216,513,522,446
188219,498,596,564
188223,497,543,594
188227,511,442,494
188231,518,449,415
188235,508,548,479
188239,496,594,594
188243,500,516,588
188248,516,428,474
188252,523,464,420
188256,508,570,505
188260,494,587,602
188264,500,491,567
188268,516,421,448
188272,518,482,422
188275,505,582,528
188279,496,568,604
188283,504,462,539
188288,518,420,429
188292,513,501,439
188296,495,587,557
188300,496,551,607
188304,512,448,515
188308,522,433,421
188312,516,525,464
188316,499,590,577
188320,499,531,598
188324,510,438,490
188328,519,450,414
188332,513,548,485
188336,498,586,592
188340,498,505,576
188344,510,425,461
188348,517,469,422
188352,509,571,517
188356,498,579,607
188360,503,482,556
188364,518,423,439
188368,517,490,427
188372,499,582,537
188377,489,558,603
188381,504,455,526
188385,517,424,421
188388,514,511,447
188392,501,589,560
188396,497,539,598
188400,509,437,502
188404,523,436,413
188408,515,536,470
188412,497,588,583
188417,496,517,587
188421,511,428,473
188425,521,454,413
188429,507,556,496
188433,487,580,596
188437,492,493,566
188441,514,420,453
188444,516,476,420
188448,498,576,523
188452,490,570,607
188456,506,470,550
188461,522,423,431
188465,520,498,436
188469,505,585,543
188473,499,552,597
188477,507,450,510
188481,520,431,413
188485,516,523,452
188489,499,591,567
188493,497,533,590
188497,510,432,486
188500,520,442,411
188505,512,545,477
188509,496,587,588
188513,498,513,580
188517,511,431,463
188521,520,467,414
188525,506,567,504
188529,493,579,601
188533,500,486,560
188537,515,423,448
188541,516,484,428
188546,503,579,535
188550,490,565,606
188554,501,462,531
188557,516,424,424
188561,515,506,440
188565,504,584,554
188569,498,539,598
188573,511,440,503
188577,524,436,413
188581,514,537,462
188585,495,594,578
188590,494,527,592
188594,514,435,479
188598,523,455,414
188602,513,557,494
188606,497,589,597
188610,496,504,571
188613,514,427,455
188617,520,472,420
188621,504,573,518
188625,493,576,608
188630,501,484,549
188634,512,432,436
188638,510,499,432
188642,494,589,544
188646,492,562,604
188650,506,458,520
188654,520,432,419
188658,514,517,447
188662,496,588,565
188666,497,536,591
188669,515,435,488
188674,525,437,407
188678,512,536,468
188682,495,585,580
188686,498,514,578
188690,514,426,461
188694,522,456,406
188698,506,558,493
188702,492,579,596
188706,499,489,558
188710,515,424,445
188715,521,480,426
188719,505,575,527
188723,494,567,601
188726,503,468,536
188730,518,427,430
188734,518,502,443
188738,501,587,557
188742,493,550,604
188746,507,447,511
188750,519,429,416
188754,513,522,459
188759,498,585,574
188763,499,526,587
188767,513,433,479
188771,519,447,408
188775,509,548,483
188779,493,582,590
188782,498,504,573
188786,517,427,460
188790,525,470,417
188794,512,570,508
188798,498,576,598
188803,505,484,549
188807,521,427,434
188811,522,489,425
188815,506,580,535
188819,496,559,600
188823,506,458,525
188827,521,429,423
188831,519,515,447
188835,499,589,566
188838,495,541,600
188843,510,439,495
188847,521,437,410
188851,513,533,468
188855,496,586,582
188859,497,515,581
188863,511,424,471
188867,518,455,416
188871,508,558,495
188875,495,579,595
188879,502,490,565
188883,516,419,448
188888,519,471,420
188892,507,569,524
188895,498,564,605
188899,504,470,547
188903,514,425,435
188907,518,498,438
188911,504,582,551
188915,492,552,608
188919,503,455,520
188923,516,432,419
188928,515,515,457
188932,500,585,573
188936,495,536,598
188940,513,441,492
188944,520,440,417
188948,510,534,485
188951,494,577,593
188955,496,507,576
188959,511,428,459
188963,518,470,411
188967,507,570,503
188972,492,576,600
188976,497,481,561
188980,514,422,442
188984,516,485,420
188988,499,574,526
188992,491,554,597
188996,500,455,524
189000,514,425,420
189004,508,511,439
189007,488,591,559
189011,481,545,599
189016,504,441,502
189020,522,437,412
189024,518,529,461
189028,502,586,580
189032,506,523,592
189036,520,429,481
189040,528,450,413
189044,517,551,488
189048,499,577,589
189052,500,491,564
189057,515,416,449
189061,521,464,412
189064,506,565,513
189068,496,570,596
189072,502,477,540
189076,519,423,429
189080,519,490,427
189084,503,576,537
189088,496,554,597
189092,507,456,518
189096,518,430,420
189101,515,511,446
189105,500,581,563
189109,493,537,595
189113,507,442,494
189117,520,440,413
189120,513,533,477
189124,498,581,590
189128,498,511,579
189132,507,427,466
189136,518,453,414
189140,512,552,501
189145,497,572,598
189149,501,481,563
189153,518,416,441
189157,520,472,419
189161,506,569,523
189165,494,563,598
189169,502,469,533
189173,517,427,423
189176,515,500,431
189180,502,581,547
189185,492,549,597
189189,504,451,507
189193,519,435,414
189197,515,524,459
189201,498,587,575
189205,491,533,590
189209,501,439,484
189213,516,450,417
189217,505,544,483
189221,488,581,590
189225,498,509,572
189230,517,430,454
189233,519,465,413
189237,505,562,510
189241,493,572,599
189245,501,483,547
189249,519,426,431
189253,518,488,425
189257,503,578,537
189261,493,561,602
189265,504,464,522
189270,520,432,418
189274,521,512,444
189278,503,589,563
189282,498,549,599
189286,512,453,498
189289,521,448,418
189293,511,543,474
189297,495,594,584
189301,496,527,583
189305,510,438,472
189309,516,455,418
189314,504,550,499
189318,493,575,600
189322,499,489,570
189326,513,419,456
189330,512,470,424
189334,493,566,523
189338,488,563,601
189342,504,469,541
189345,521,426,431
189349,519,498,436
189353,502,584,547
189358,496,550,593
189362,509,449,509
189366,521,430,415
189370,515,519,453
189374,500,586,568
189378,497,533,591
189382,508,439,486
189386,516,448,414
189390,506,548,481
189394,491,587,590
189399,498,512,577
189402,517,430,462
189406,522,464,415
189410,511,560,506
189414,496,574,594
189418,500,485,549
189422,514,424,434
189426,517,481,420
189430,498,574,531
189434,492,561,600
189438,508,463,525
189443,521,425,423
189447,511,503,439
189451,495,582,558
189455,493,544,595
189458,511,444,496
189462,523,434,408
189466,516,524,460
189470,500,582,577
189474,500,526,585
189478,516,435,473
189483,523,453,411
189487,509,552,490
189491,494,583,594
189495,498,501,571
189499,515,429,456
189503,520,475,421
189507,507,572,519
189511,494,576,600
189514,504,480,542
189518,515,427,433
189522,513,495,435
189527,499,583,548
189531,491,556,602
189535,501,456,516
189539,519,433,417
189543,514,520,455
189547,497,593,571
189551,493,541,590
189555,507,442,490
189559,518,445,409
189563,511,542,469
189568,496,585,582
189571,500,512,579
189575,514,430,468
189579,516,463,412
189583,508,564,502
189587,500,580,598
189591,508,491,561
189595,521,428,445
189599,519,483,425
189603,509,579,532
189607,499,568,608
189612,504,470,541
189616,519,428,432
189620,514,504,443
189624,498,586,555
189627,494,549,603
189631,507,450,507
189635,518,437,413
189639,515,529,459
189643,504,589,571
189647,501,526,584
189651,513,434,477
189656,519,448,414
189660,511,549,491
189664,497,583,592
189668,496,505,571
189672,510,428,458
189676,520,468,417
189680,507,566,515
189683,493,575,605
189687,499,481,555
189691,513,427,442
189696,520,493,429
189700,503,584,539
189704,487,564,606
189708,500,463,528
189712,522,431,423
189716,517,512,447
189720,499,584,564
189724,498,539,601
189728,511,444,499
189732,521,440,412
189736,513,531,465
189740,495,581,578
189744,496,512,582
189748,512,427,469
189752,523,453,407
189756,512,554,491
189760,499,578,590
189764,501,494,560
189768,515,427,449
189772,520,479,420
189776,503,575,521
189780,491,569,603
189785,501,476,543
189789,518,431,434
189793,516,498,438
189796,495,583,550
189800,487,554,597
189804,503,454,513
189808,519,431,421
189812,516,515,457
189816,500,578,568
189820,495,528,589
189825,511,438,484
189829,521,447,410
189833,511,543,479
189837,492,586,586
189841,495,512,574
189845,510,432,459
189849,521,463,412
189852,510,563,509
189856,495,576,595
189860,498,482,549
189864,512,424,437
189869,514,487,422
189873,504,579,531
189877,498,561,600
189881,503,465,530
189885,515,428,423
189889,513,507,443
189893,496,583,558
189897,491,544,597
189901,504,449,502
189905,517,441,414
189908,509,533,466
189913,495,587,578
189917,496,524,585
189921,513,434,474
189925,518,454,411
189929,506,552,490
189933,495,580,593
189937,496,498,566
189941,509,426,445
189945,515,474,412
189949,505,572,513
189954,492,570,598
189958,501,477,545
189962,520,426,433
189965,523,496,431
189969,506,583,541
189973,497,555,599
189977,505,457,517
189981,519,433,418
189985,516,518,451
189989,498,587,570
189993,493,536,594
189998,508,440,491
190002,521,441,412
190006,514,536,476
190010,497,584,588
190014,496,518,583
190018,512,433,463
190021,519,461,410
190025,508,559,498
190029,493,575,593
190033,499,485,554
190038,518,422,440
190042,520,483,422
190046,504,576,529
190050,492,567,603
190054,503,473,535
190058,518,433,429
190062,517,510,448
190066,499,592,561
190070,493,553,602
190074,506,450,509
190077,515,434,417
190082,512,523,462
190086,502,583,579
190090,499,526,598
190094,511,434,489
190098,522,448,418
190102,510,541,490
190106,494,575,593
190110,493,501,575
190114,513,427,459
190118,521,463,419
190123,502,559,512
190127,497,571,600
190131,506,481,551
190134,521,427,436
190138,521,491,429
190142,504,578,534
190146,492,561,597
190150,505,464,520
190154,513,433,419
190158,515,513,445
190162,501,586,562
190167,496,542,595
190171,511,449,499
190175,523,446,416
190179,510,536,475
190183,495,588,587
190187,496,523,585
190190,510,436,471
190194,512,461,415
190198,501,560,501
190202,491,584,598
190206,497,498,566
190211,516,432,454
190215,521,481,420
190219,508,574,521
190223,496,570,596
190227,501,475,536
190231,515,429,428
190235,517,502,433
190239,498,584,547
190243,490,554,603
190246,506,458,517
190251,516,441,420
190255,513,530,457
190259,502,593,571
190263,498,536,592
190267,511,444,485
190271,522,455,412
190275,517,549,484
190279,503,589,591
190283,502,512,577
190287,516,431,465
190291,521,469,418
190296,507,568,511
190300,494,577,605
190303,500,484,555
190307,518,422,436
190311,520,480,423
190315,502,569,528
190319,494,552,596
190323,501,457,524
190327,515,426,420
190331,515,503,442
190336,497,582,558
190340,493,544,596
190344,507,450,500
190348,521,444,417
190352,515,535,469
190356,498,589,580
190359,494,528,588
190363,504,442,479
190367,516,462,414
190371,507,556,490
190375,498,584,590
190380,499,506,565
190384,514,432,450
190388,521,474,418
190392,506,568,518
190396,487,570,602
190400,499,481,546
190404,517,431,426
190408,521,494,425
190412,505,579,540
190415,496,556,600
190419,506,460,517
190424,520,435,418
190428,516,516,452
190432,498,583,568
190436,492,537,594
190440,506,444,489
190444,521,445,413
190448,513,537,475
190452,500,581,586
190456,498,510,580
190460,511,428,465
190465,521,462,412
190469,507,562,500
190472,486,583,595
190476,492,499,557
190480,517,435,444
190484,521,483,427
190488,506,574,535
190492,497,566,605
190496,506,472,536
190500,518,432,427
190504,518,503,441
190509,499,580,553
190513,483,547,599
190517,498,452,506
190521,520,438,413
190525,515,527,460
190528,505,587,574
190532,502,532,588
190536,515,443,482
190540,526,455,414
190544,515,550,491
190548,499,586,597
190553,496,510,575
190557,513,435,460
190561,523,471,421
190565,512,565,517
190569,495,573,603
190573,500,484,547
190577,521,430,438
190580,521,491,431
190583,502,576,539
190587,493,552,598
190592,502,450,519
190596,517,427,417
190600,518,514,448
190604,503,589,567
190608,497,545,593
190612,511,450,490
190616,520,445,406
190620,507,536,464
190624,498,584,580
190628,499,517,584
190632,511,434,472
190636,521,462,416
190639,508,559,503
190643,497,583,603
190647,501,502,573
190651,515,434,450
190655,523,481,424
190659,511,573,527
190663,497,568,606
190667,505,471,542
190671,518,426,434
190675,517,495,444
190680,501,580,557
190684,492,554,606
190688,505,458,516
190691,517,438,421
190694,516,521,460
190698,501,584,575
190702,495,534,593
190706,512,444,486
190710,522,451,415
190714,514,540,485
190718,501,582,594
190723,501,514,577
190727,517,438,462
190731,522,468,420
190735,508,561,517
190739,493,576,609
190743,499,491,555
190746,512,429,439
190749,514,484,427
190753,500,574,537
190757,489,564,604
190761,499,472,531
190766,514,436,423
190770,514,507,444
190774,499,583,561
190778,494,546,595
190782,507,453,498
190786,523,446,410
190790,517,535,463
190794,496,589,576
190798,496,521,583
190801,512,431,476
190804,522,456,413
190809,507,555,492
190813,495,579,591
190817,498,495,563
190821,518,426,447
190825,522,479,418
190829,509,579,520
190833,495,575,603
190837,502,475,543
190841,517,430,432
190845,518,505,437
190850,502,592,546
190854,495,559,600
190857,505,457,516
190860,518,440,419
190864,514,530,452
190868,494,595,565
190872,491,544,590
190876,512,448,487
190880,524,453,412
190884,513,545,475
190888,493,588,586
190893,489,518,579
190897,506,437,466
190901,517,469,417
190905,507,567,504
190909,494,584,600
190912,502,495,556
190916,515,432,441
190920,517,495,427
190924,502,587,535
190928,493,568,603
190932,504,465,533
190937,522,430,427
190941,522,510,441
190945,502,588,556
190949,494,549,600
190953,509,450,508
190957,521,441,411
190961,511,534,456
190965,495,592,573
190968,493,528,586
190972,509,435,475
190977,518,454,407
190981,506,554,482
190985,493,586,588
190989,494,503,570
190993,509,427,454
190997,519,476,415
191001,510,575,510
191005,493,577,598
191009,499,482,543
191013,517,429,430
191017,517,499,427
191022,506,589,540
191025,496,562,601
191029,502,463,522
191033,518,436,420
191037,516,521,450
191041,499,592,568
191045,493,541,599
191049,507,444,496
191053,522,449,418
191057,514,546,476
191062,495,592,586
191066,492,517,581
191070,510,430,466
191074,521,461,411
191078,510,561,497
191081,493,577,592
191085,494,488,559
191089,510,423,446
191093,518,482,419
191097,504,581,522
191101,496,568,599
191106,504,465,536
191110,520,427,425
191114,520,505,436
191118,503,587,552
191122,495,554,601
191126,507,453,513
191130,517,439,419
191134,513,528,460
191137,500,590,578
191141,497,531,598
191145,512,437,491
191150,522,449,417
191154,516,544,483
191158,498,579,591
191162,495,500,573
191166,510,423,458
191170,519,466,421
191174,505,568,512
191178,488,575,597
191182,491,482,548
191186,511,424,440
191191,516,488,427
191194,502,580,535
191198,491,562,601
191202,501,462,527
191206,515,433,425
191210,515,518,444
191214,498,592,561
191218,492,544,597
191222,505,445,504
191226,517,445,419
191230,513,541,472
191235,499,592,583
191239,494,525,587
191243,511,434,478
191247,522,462,419
191250,513,563,500
191254,493,586,599
191258,497,496,568
191262,517,424,452
191266,521,477,423
191270,505,575,519
191275,489,570,600
191279,497,471,542
191283,518,425,429
191287,521,500,432
191291,504,588,547
191295,495,557,600
191299,505,458,516
191303,519,438,417
191306,517,527,456
191310,500,592,572
191314,490,537,595
191319,497,441,490
191323,514,450,415
191327,517,550,481
191331,502,588,588
191335,500,509,580
191339,514,427,466
191343,522,463,414
191347,511,563,504
191351,497,575,595
191355,503,481,552
191360,519,419,435
191363,516,479,418
191367,504,572,529
191371,493,558,599
191375,502,458,530
191379,516,425,423
191383,518,507,435
191387,503,584,551
191391,494,540,597
191395,502,440,504
191399,517,436,414
191404,515,530,465
191408,493,584,578
191412,491,525,589
191416,508,438,479
191419,523,456,415
191423,515,554,489
191427,502,587,594
191431,503,509,573
191435,518,434,456
191439,523,474,422
191443,512,568,520
191448,498,572,605
191452,502,485,548
191456,518,432,432
191460,521,493,430
191464,504,579,540
191468,494,560,603
191472,503,463,520
191475,520,434,413
191479,516,523,442
191483,499,592,559
191488,494,543,591
191492,505,447,489
191496,516,446,413
191500,512,539,473
191504,498,585,586
191508,495,517,582
191512,506,435,471
191516,521,467,418
191520,513,566,504
191524,493,580,599
191528,497,488,566
191532,515,422,451
191536,520,478,428
191540,507,573,528
191544,495,565,600
191548,508,468,535
191552,524,425,426
191556,518,499,434
191560,501,582,550
191564,494,549,598
191568,508,447,507
191572,522,433,416
191577,516,526,459
191581,500,589,571
191585,498,532,586
191588,510,443,479
191592,517,455,409
191596,510,548,482
191600,493,587,590
191604,497,514,575
191608,514,435,459
191612,522,469,417
191617,511,564,508
191621,496,575,601
191625,500,484,551
191629,516,428,437
191633,518,496,428
191637,502,588,538
191641,487,567,603
191644,497,467,526
191648,514,436,421
191652,513,517,446
191656,498,588,563
191661,493,536,601
191665,509,438,501
191669,523,437,414
191673,514,530,464
191677,496,585,578
191681,498,525,585
191685,512,439,474
191689,520,467,415
191693,508,568,499
191697,494,589,597
191700,492,495,567
191705,509,426,452
191709,516,482,424
191713,506,581,525
191717,494,573,602
191721,502,468,541
191725,515,419,432
191729,517,494,439
191733,504,582,552
191737,495,558,610
191741,507,461,519
191746,520,438,419
191750,518,521,452
191754,499,584,567
191757,497,531,590
191761,508,437,484
191765,520,450,410
191769,516,548,477
191773,498,589,587
191777,491,517,577
191781,510,436,461
191785,523,461,414
191790,513,556,507
191794,497,577,601
191798,500,497,562
191802,515,432,451
191806,519,480,436
191810,505,570,546
191813,494,553,616
191817,500,450,546
191821,515,414,439
191825,513,492,457
191830,500,576,568
191834,490,549,607
191838,504,459,511
191842,514,443,421
191846,510,522,467
191850,492,581,576
191854,489,529,583
191858,509,444,475
191862,521,455,414
191866,514,545,492
191869,497,579,595
191874,498,504,569
191878,513,432,455
191882,521,475,421
191886,509,567,520
191890,494,572,606
191894,497,481,549
191898,515,431,432
191902,519,494,426
191906,502,579,537
191910,493,559,598
191915,504,464,518
191919,520,440,422
191923,515,520,450
191926,500,588,559
191930,496,543,589
191934,511,453,491
191938,524,455,414
191942,517,546,473
191946,499,589,581
191950,500,520,580
191954,514,438,468
191959,520,462,415
191963,508,555,499
191967,493,578,593
191971,498,500,559
191975,517,439,444
191979,521,488,424
191982,505,578,531
191986,490,571,607
191990,498,483,541
191994,520,440,432
191998,521,503,443
192003,507,584,563
192007,498,560,613
192011,506,465,513
192015,519,443,418
192019,513,525,462
192023,490,591,575
192027,489,544,588
192031,509,457,481
192035,525,461,413
192038,514,547,482
192043,498,582,586
192047,501,514,567
192051,515,440,451
192055,521,480,409
192059,505,577,504
192063,492,577,594
192067,498,480,546
192071,511,428,433
192075,517,499,423
192079,505,586,532
192083,495,561,598
192088,505,462,524
192092,520,437,418
192095,518,526,442
192099,501,599,555
192103,496,542,591
192107,510,439,497
192111,521,441,411
192115,513,542,467
192119,497,592,579
192123,494,518,580
192128,511,427,467
192132,521,457,408
192136,510,561,490
192140,494,582,591
192144,493,492,561
192148,508,424,445
192151,518,480,417
192155,505,577,519
192159,496,567,599
192163,503,464,538
192167,518,420,430
192172,518,499,439
192176,502,584,554
192180,493,548,605
192184,504,447,520
192188,518,433,425
192192,516,526,457
192196,498,590,575
192200,495,529,596
192204,508,433,490
192207,520,448,413
192211,512,550,480
192216,496,591,590
192220,494,512,577
192224,509,432,462
192228,518,471,408
192232,507,569,497
192236,493,577,593
192240,498,483,550
192244,515,423,435
192248,514,490,421
192252,503,584,529
192257,495,562,597
192261,504,462,527
192264,517,430,423
192268,516,510,439
192272,501,588,557
192276,497,543,600
192280,509,445,506
192284,522,442,416
192288,516,541,465
192292,499,598,578
192296,494,525,588
192301,511,430,482
192305,524,455,421
192309,516,560,496
192313,500,585,600
192317,499,494,577
192320,512,419,458
192324,514,471,422
192328,505,574,516
192332,495,572,600
192336,499,474,544
192340,514,425,432
192345,520,500,429
192349,508,592,538
192353,496,561,596
192357,505,457,518
192361,516,438,416
192365,511,520,444
192369,496,586,563
192373,491,533,591
192376,509,437,491
192380,525,448,412
192385,516,552,474
192389,500,595,584
192393,499,515,582
192397,515,431,469
192401,522,467,415
192405,507,572,503
192409,494,588,602
192413,498,495,565
192417,514,427,451
192421,521,488,427
192425,507,582,528
192430,491,570,605
192433,500,469,534
192437,516,429,423
192441,519,511,434
192445,506,592,551
192449,499,549,602
192453,508,446,512
192457,520,435,420
192461,516,531,462
192465,498,590,577
192470,493,522,593
192474,509,426,488
192478,520,449,419
192482,512,554,491
192486,496,586,591
192489,497,502,575
192492,514,425,459
192496,520,474,418
192500,508,579,514
192504,490,582,604
192508,499,485,556
192513,519,428,440
192517,520,497,427
192521,506,589,533
192525,494,562,599
192529,503,459,527
192533,521,432,422
192537,518,520,446
192541,501,596,559
192545,492,544,595
192548,506,443,496
192552,520,443,412
192557,515,545,464
192561,498,596,577
192565,496,520,583
192569,508,430,471
192573,518,459,412
192577,510,563,494
192581,499,585,598
192585,501,497,574
192589,517,428,453
192593,521,477,426
192598,507,575,526
192601,495,570,606
192604,502,466,546
192608,514,419,435
192612,513,493,437
192616,504,582,549
192620,496,551,605
192624,503,449,520
192628,512,433,420
192632,516,526,451
192636,503,592,569
192641,498,530,592
192645,511,433,487
192649,519,448,413
192653,512,554,479
192657,494,596,590
192660,496,515,583
192664,510,430,465
192668,519,468,415
192672,507,571,505
192676,493,581,601
192680,497,485,556
192685,510,424,441
192689,515,490,423
192693,500,584,534
192697,489,565,606
192701,500,458,533
192705,514,423,423
192709,511,508,438
192713,489,585,551
192716,486,540,594
192720,505,441,501
192724,513,437,411
192729,511,535,458
192733,499,591,574
192737,497,521,585
192741,510,427,477
192745,518,452,412
192749,513,558,489
192753,500,585,592
192757,502,499,575
192761,516,427,466
192765,521,478,425
192770,512,577,519
192773,498,574,604
192777,504,476,552
192781,519,426,438
192785,517,498,433
192789,504,587,545
192793,492,556,606
192797,501,454,523
192801,516,433,420
192805,516,524,449
192809,499,593,565
192814,494,538,594
192818,504,438,494
192822,510,445,414
192826,509,547,472
192829,496,592,587
192833,495,515,589
192837,512,429,474
192841,520,463,415
192845,505,568,504
192849,488,587,600
192854,494,492,564
192858,514,427,447
192862,521,486,420
192866,507,584,525
192870,496,570,603
192874,499,468,538
192878,512,427,431
192882,518,508,438
192885,506,592,552
192889,497,555,598
192893,505,450,509
192898,518,436,417
192902,514,531,460
192906,496,589,573
192910,493,522,588
192914,509,429,482
192918,520,449,410
192922,511,553,479
192926,494,588,592
192930,498,505,573
192934,516,425,457
192939,522,470,415
192942,510,573,506
192946,496,578,598
192950,503,485,555
192954,516,427,440
192958,516,494,430
192962,505,586,541
192966,497,564,606
192970,506,462,531
192974,519,433,427
192978,515,519,448
192983,500,594,562
192987,494,544,597
192991,507,443,501
192995,521,445,417
192998,515,547,469
193002,497,597,582
193006,495,521,584
193010,511,427,471
193014,523,456,406
193018,514,561,487
193022,497,584,588
193027,498,494,564
193031,513,426,448
193035,521,480,416
193039,508,578,519
193043,492,574,601
193047,501,474,544
193051,517,427,432
193054,520,500,431
193058,503,585,544
193062,492,551,601
193067,505,449,517
193071,521,433,422
193075,516,525,456
193079,494,592,571
193083,492,534,596
193087,509,436,493
193091,521,446,416
193095,515,546,478
193099,503,585,588
193103,502,506,578
193107,517,421,460
193111,524,461,416
193115,510,565,506
193119,492,577,597
193123,496,482,556
193127,515,418,443
193131,518,484,422
193135,505,581,527
193139,491,563,601
193143,498,461,533
193147,518,427,426
193152,518,510,443
193156,501,588,559
193160,492,541,603
193164,505,436,510
193167,521,433,419
193171,515,534,462
193175,498,592,576
193179,493,526,589
193183,509,434,482
193187,525,455,412
193191,513,556,486
193196,496,581,593
193200,496,495,572
193204,513,421,456
193208,521,473,418
193212,506,573,514
193216,497,570,598
193220,504,470,545
193223,516,421,429
193227,515,492,425
193231,508,584,542
193235,499,555,598
193240,508,450,515
193244,520,429,414
193248,516,521,444
193252,501,592,563
193256,495,539,594
193260,509,441,498
193264,522,447,416
193268,514,548,471
193272,494,591,581
193276,492,511,578
193280,508,423,466
193284,519,460,412
193288,504,569,498
193292,495,585,595
193296,500,490,561
193300,517,422,445
193304,519,482,419
193308,505,580,522
193312,496,568,602
193316,503,468,538
193320,515,430,422
193325,518,509,431
193329,502,589,545
193333,493,549,597
193336,507,454,509
193340,519,443,411
193344,514,535,456
193348,500,594,574
193352,497,530,594
193356,510,437,490
193360,521,455,419
193364,509,557,488
193369,492,591,592
193373,496,504,575
193377,515,423,459
193381,523,466,416
193385,509,567,509
193389,494,573,599
193392,502,479,555
193396,517,427,442
193400,519,495,430
193404,504,585,542
193409,489,562,609
193413,495,462,532
193417,518,431,423
193421,519,519,443
193425,503,595,560
193429,497,546,599
193433,507,447,506
193437,520,450,422
193441,516,550,471
193445,498,598,585
193448,495,523,590
193453,508,434,478
193457,519,467,416
193461,508,571,495
193465,493,590,596
193469,497,498,570
193473,513,426,453
193477,518,477,421
193481,504,578,520
193485,490,571,603
193489,493,470,543
193494,515,425,430
193498,517,503,429
193502,503,587,542
193505,495,554,601
193509,505,454,518
193513,520,437,419
193517,514,530,453
193521,497,595,574
193525,493,535,596
193529,507,440,489
193533,521,452,413
193538,513,553,478
193542,496,591,587
193546,498,509,575
193550,514,431,457
193554,525,472,408
193558,512,572,488
193561,496,590,579
193565,499,490,554
193569,516,421,441
193573,518,484,416
193577,504,604,488
193582,495,576,583
193586,498,443,543
193590,513,402,450
193594,516,490,442
193598,505,573,498
193602,497,509,481
193606,508,391,472
193610,524,390,403
193614,518,503,421
193617,500,571,600
193622,496,509,637
193626,512,423,530
193630,524,443,392
193634,516,530,410
193638,500,560,531
193642,497,481,554
193646,514,402,496
193650,522,464,454
193654,508,588,548
193658,495,609,641
193662,504,499,542
193667,520,412,400
193671,520,463,402
193674,506,564,522
193678,495,553,548
193682,502,448,491
193686,519,424,342
193690,518,525,419
193694,501,617,607
193698,493,598,574
193702,504,454,504
193707,520,433,381
193711,515,534,405
193715,496,571,576
193719,491,489,619
193723,512,433,501
193727,523,533,432
193730,511,691,513
193734,495,670,610
193738,497,534,571
193742,517,446,483
193746,521,468,442
193751,506,570,517
193755,488,547,629
193759,495,448,554
193763,514,424,447
193767,517,502,450
193771,505,615,524
193775,494,594,542
193779,501,409,523
193783,513,380,431
193786,511,465,516
193790,499,552,617
193795,488,543,619
193799,505,451,498
193803,514,500,421
193807,501,599,490
193811,487,605,621
193815,479,524,594
193819,483,431,470
193823,500,512,392
193827,479,694,504
193831,451,639,632
193836,434,447,617
193840,477,449,474
193843,511,603,440
193847,492,615,563
193851,493,520,619
193855,491,431,543
193859,489,398,493
193863,513,483,509
193867,522,571,610
193871,522,568,618
193875,522,487,522
193880,537,462,459
193884,503,513,525
193888,456,552,640
193892,448,574,523
193896,479,557,484
193899,501,494,533
193903,472,524,576
193907,484,553,657
193911,501,487,604
193915,477,431,507
193920,498,485,472
193924,458,561,573
193928,435,574,615
193932,515,475,561
193936,545,517,361
193940,543,755,333
193944,489,803,543
193948,441,567,720
193952,455,344,648
193955,495,365,478
193959,534,561,442
193964,432,633,605
193968,375,524,617
193972,425,412,465
193976,445,372,465
193980,500,439,560
193984,528,534,634
193988,533,524,620
193992,512,415,518
193996,485,433,416
194000,529,566,488
194004,541,624,552
194009,551,578,516
194012,553,462,488
194016,552,424,479
194020,513,538,522
194024,451,620,560
194028,452,500,503
194032,549,414,462
194036,579,525,430
194040,488,565,626
194044,433,455,666
194049,467,370,527
194053,530,368,448
194057,517,470,519
194061,448,591,577
194065,522,526,603
194068,543,465,480
194072,509,435,473
194076,516,527,482
194080,472,573,602
194084,487,490,558
194088,590,405,455
194093,615,467,387
194097,607,634,470
194101,510,585,584
194105,522,401,573
194109,557,345,441
194113,516,418,487
194117,488,579,577
194121,542,632,590
194124,591,554,482
194128,564,462,453
194132,531,530,480
194137,517,645,519
194141,516,595,563
194145,504,487,541
194149,524,356,507
194153,548,383,534
194157,507,444,621
194161,517,420,579
194165,588,388,445
194169,536,457,355
194173,475,618,491
194178,515,667,554
194181,510,600,504
194185,587,411,503
194189,604,392,484
194193,492,486,562
194197,477,566,595
194201,550,463,576
194205,607,389,471
194209,618,472,482
194213,523,627,513
194217,479,809,498
194222,539,597,488
194226,556,345,481
194230,532,358,531
194234,505,444,580
194237,488,410,572
194241,478,349,489
194245,467,429,416
194249,479,582,451
194253,531,671,536
194257,516,537,565
194262,515,514,373
194266,515,526,404
194270,572,495,582
194274,587,465,622
194278,539,371,569
194282,533,339,457
194286,561,484,422
194290,528,614,543
194293,443,502,623
194297,509,353,517
194301,554,346,428
194306,547,484,429
194310,536,629,536
194314,505,788,454
194318,539,618,485
194322,516,394,447
194326,465,407,516
194330,429,564,539
194334,460,688,512
194338,523,451,522
194342,583,334,475
194347,562,436,548
194350,483,496,655
194354,494,392,623
194358,540,389,450
194362,566,497,400
194366,519,548,518
194370,516,488,637
194374,534,356,578
194378,531,398,369
194382,522,551,413
194386,501,622,579
194391,488,517,622
194395,511,408,500
194399,514,522,326
194403,493,746,359
194406,487,825,533
194410,508,538,679
