104444,521,495,441
104449,519,590,569
104453,498,555,602
104457,492,441,493
104461,507,418,400
104465,518,518,465
104469,514,595,586
104473,498,536,585
104477,494,432,465
104481,513,440,401
104485,524,547,492
104489,509,591,603
104493,489,506,571
104497,493,415,448
104501,514,455,417
104505,521,570,532
104509,504,589,616
104513,489,488,546
104517,498,418,426
104521,518,484,435
104525,521,591,554
104529,500,571,609
104534,492,457,515
104538,507,416,407
104542,526,506,448
104546,521,595,574
104549,500,551,600
104553,493,436,484
104557,512,423,401
104561,528,529,477
104565,518,596,595
104569,495,526,577
104573,494,421,453
104578,515,442,409
104582,523,558,509
104586,509,593,607
104590,490,497,559
104594,496,412,437
104598,517,464,426
104602,521,581,543
104605,502,585,614
104609,489,475,534
104613,500,416,423
104617,518,492,443
104622,514,590,566
104626,495,567,606
104630,487,453,500
104634,503,422,406
104638,521,515,461
104642,509,594,583
104646,493,542,589
104650,492,430,469
104654,511,428,399
104658,524,535,484
104662,512,590,601
104666,494,514,573
104670,499,418,448
104674,518,447,413
104678,525,562,521
104682,508,590,615
104686,492,491,548
104690,500,414,429
104694,517,470,425
104698,519,578,545
104702,500,575,606
104707,487,465,519
104711,502,413,411
104715,520,493,449
104718,517,589,572
104722,498,552,599
104726,491,440,487
104730,508,425,404
104734,523,531,475
104738,510,604,596
104742,490,541,585
104747,490,433,462
104751,512,442,407
104755,525,553,504
104759,511,598,609
104763,494,510,567
104767,499,426,448
104771,518,474,422
104774,523,587,533
104777,506,601,614
104781,492,494,540
104785,503,424,426
104790,521,493,440
104794,519,598,563
104798,500,578,615
104802,492,464,514
104806,504,427,416
104810,518,519,465
104814,512,605,587
104818,493,556,603
104822,489,447,489
104826,508,442,410
104830,518,550,486
104834,503,607,601
104838,481,530,578
104842,489,427,451
104846,510,453,410
104850,517,570,514
104854,505,600,612
104858,491,503,558
104862,499,422,434
104866,519,478,425
104870,519,590,544
104875,499,584,612
104879,490,472,530
104883,506,419,420
104887,526,506,450
104890,521,604,578
104894,500,566,616
104898,494,449,499
104902,512,428,409
104906,525,532,470
104910,514,602,589
104914,493,534,590
104919,494,425,468
104923,514,437,406
104927,524,554,496
104931,507,600,602
104935,488,509,569
104939,496,416,445
104943,517,457,411
104946,519,573,521
104950,500,587,607
104954,489,483,545
104958,502,415,426
104963,520,483,429
104967,516,587,551
104971,501,569,609
104975,495,456,514
104979,510,416,411
104983,526,508,452
104987,518,593,575
104991,499,545,597
104995,494,432,482
104999,511,424,401
105003,525,532,470
105007,512,595,588
105011,492,525,576
105015,494,423,455
105019,514,446,405
105023,522,559,499
105027,508,588,597
105031,489,493,548
105035,500,415,425
105039,522,468,414
105043,523,577,533
105048,502,579,610
105052,489,470,532
105056,501,415,411
105059,519,493,433
105063,518,593,557
105067,496,563,598
105071,492,447,497
105075,509,420,406
105079,520,523,460
105083,509,603,582
105088,493,544,589
105092,492,433,475
105096,513,438,408
105100,525,547,489
105104,511,596,603
105108,492,513,573
105112,497,418,447
105115,516,455,411
105119,521,571,517
105123,502,589,608
105127,486,483,547
105132,497,407,426
105136,519,468,424
105140,516,578,547
105144,496,568,607
105148,489,455,520
105152,503,415,416
105156,521,508,451
105160,517,600,576
105164,495,553,603
105168,488,437,491
105171,504,428,405
105176,521,538,472
105180,512,605,589
105184,494,530,583
105188,494,423,464
105192,513,446,408
105196,527,564,497
105200,510,596,598
105204,493,495,559
105208,502,408,437
105212,522,463,415
105217,523,578,531
105221,501,579,609
105225,486,465,532
105228,500,410,418
105232,522,493,432
105236,518,596,555
105240,497,565,605
105244,489,448,508
105248,509,423,409
105252,526,529,459
105256,518,610,582
105261,495,544,597
105265,494,428,480
105269,513,432,406
105273,524,547,485
105277,510,602,597
105281,492,515,578
105284,495,415,452
105288,518,448,404
105292,528,563,508
105296,510,586,605
105300,490,487,552
105305,503,410,424
105309,522,470,413
105313,522,583,532
105317,503,574,601
105321,491,459,518
105325,504,408,410
105329,522,497,440
105333,517,594,569
105337,496,555,604
105340,490,440,497
105345,506,425,404
105349,520,529,467
105353,509,601,591
105357,489,535,593
105361,491,424,474
105365,513,438,412
105369,525,554,502
105373,511,599,612
105377,492,509,577
105381,497,419,451
105385,519,470,420
105390,523,586,532
105394,503,590,615
105397,486,476,546
105400,499,412,424
105404,522,491,433
105408,520,597,553
105412,499,572,606
105416,493,453,511
105420,510,417,408
105424,526,516,451
105428,517,604,574
105433,496,546,596
105437,491,434,483
105441,511,435,406
105445,526,549,482
105449,512,607,602
105453,491,526,588
105456,492,425,463
105460,514,454,408
105464,524,571,509
105468,509,601,609
105473,494,497,564
105477,501,417,439
105481,520,476,425
105485,521,590,539
105489,503,582,610
105493,490,465,532
105497,503,413,418
105501,522,499,438
105505,517,598,563
105509,496,562,606
105512,493,443,506
105517,511,425,410
105521,526,533,461
105525,515,607,581
105529,491,533,590
105533,493,420,473
105537,514,434,408
105541,525,553,491
105545,508,600,599
105549,489,508,572
105553,493,413,447
105558,515,456,411
105562,522,577,520
105566,505,592,610
105569,490,482,550
105573,498,412,430
105577,519,487,427
105581,520,595,549
105585,499,574,612
105589,487,455,524
105593,504,414,417
105597,521,511,447
105602,512,603,572
105606,493,556,602
105610,490,438,486
105614,509,429,399
105618,521,540,465
105622,510,604,585
105625,492,525,583
105629,494,420,464
105633,513,447,406
105637,521,568,503
105641,507,604,604
105646,491,503,564
105650,501,415,440
105654,522,470,418
105658,526,586,531
105662,507,587,612
105666,494,475,541
105670,504,413,425
105674,522,493,435
105678,520,596,560
105681,499,566,603
105686,490,445,505
105690,506,417,408
105694,523,518,455
105698,515,601,578
105702,494,544,593
105706,491,431,478
105710,510,434,403
105714,524,545,485
105718,512,601,596
105722,492,519,577
105726,494,419,454
105731,513,455,411
105735,521,572,514
105738,502,594,609
105742,487,490,553
105746,497,414,432
105750,520,480,423
105754,524,593,536
105758,504,581,610
105762,490,462,526
105766,505,411,415
105771,525,498,440
105775,521,595,563
105779,497,556,601
105783,488,439,496
105787,504,424,407
105791,518,532,468
105794,510,604,589
105798,489,536,588
105802,489,426,465
105806,510,439,404
105810,521,556,495
105815,505,602,602
105819,488,510,569
105823,496,420,446
105827,515,465,418
105831,519,583,529
105835,501,594,619
105839,486,484,555
105843,496,416,429
105847,516,489,433
105850,514,594,558
105854,496,570,617
105859,490,452,519
105863,507,416,415
105867,524,513,457
105871,516,601,580
105875,495,551,603
105879,490,435,490
105883,506,432,408
105887,521,543,478
105891,512,608,597
105895,492,532,586
105900,496,426,457
105904,515,451,406
105907,523,566,506
105911,505,597,607
105915,489,500,562
105919,497,417,436
105923,518,476,416
105927,523,588,531
105931,508,586,605
105935,496,472,532
105939,510,418,423
105944,527,499,438
105948,523,599,562
105952,500,569,609
105956,492,451,509
105960,507,425,416
105963,525,525,465
105967,517,600,587
105971,495,541,594
105975,492,431,473
105979,515,440,402
105984,525,553,488
105988,513,600,595
105992,495,512,572
105996,501,416,444
106000,522,454,407
106004,528,570,514
106008,508,590,608
106012,493,486,548
106016,503,417,428
106019,522,488,425
106023,522,596,544
106028,503,578,608
106032,491,459,524
106036,507,414,416
106040,525,508,447
106044,519,600,574
106048,495,552,605
106052,489,435,496
106056,508,427,412
106060,523,537,472
106064,512,603,590
106068,491,527,588
106073,495,417,466
106076,518,438,407
106079,528,556,499
106083,511,591,601
106087,492,496,563
106091,502,411,438
106095,522,466,415
106099,526,583,528
106103,507,586,612
106107,493,473,540
106112,503,412,423
106116,522,492,433
106120,518,596,558
106124,500,567,612
106128,493,449,515
106132,511,421,417
106135,527,524,456
106139,519,605,576
106143,499,544,592
106147,494,429,477
106151,513,434,403
106156,527,551,481
106160,511,605,593
106164,491,517,574
106168,495,416,453
106172,516,451,408
106176,522,570,510
106180,504,596,607
106184,491,493,556
106188,502,415,435
106191,522,478,426
106195,522,589,545
106200,502,579,611
106204,491,463,531
106208,506,418,420
106212,526,507,445
106216,521,602,570
106220,497,562,609
106224,495,444,503
106228,512,427,410
106232,525,534,466
106236,512,605,588
106241,491,535,591
106245,492,427,472
106248,513,443,409
106252,523,561,498
106256,506,601,604
106260,487,506,570
106264,494,414,446
106268,515,461,415
106272,520,578,521
106276,501,588,610
106280,488,478,546
106285,500,409,428
106289,523,482,430
106293,522,589,546
106297,498,570,605
106301,489,455,511
106304,506,419,409
106308,523,515,447
106312,515,600,569
106316,497,546,592
106320,495,429,482
106324,515,424,402
106329,529,537,475
106333,515,600,594
106337,495,518,586
106341,496,411,463
106345,518,442,410
106349,526,563,504
106353,508,593,603
106357,490,488,561
106360,498,407,436
106364,520,472,417
106369,522,594,531
106373,499,584,605
106377,487,453,531
106381,500,395,415
106385,522,494,431
106389,520,604,555
106393,498,559,600
106397,491,423,502
106401,508,404,410
106405,523,528,463
106409,510,615,579
106414,491,537,587
106417,490,413,472
106421,509,429,407
106425,522,560,492
106429,509,613,600
106433,490,516,579
106437,496,414,456
106441,516,464,412
106445,524,594,516
106449,505,607,606
106454,489,486,546
106458,499,408,424
106462,517,482,421
106466,516,596,540
106470,498,577,605
106473,487,451,514
106477,503,408,406
106481,523,513,440
106485,520,613,563
106489,497,554,597
106493,494,424,492
106498,514,424,407
106502,528,549,469
106506,515,620,587
106510,494,537,586
106514,492,421,467
106518,508,450,406
106522,519,579,502
106526,506,617,609
106529,487,509,570
106533,494,414,440
106537,516,473,415
106542,522,600,526
106546,502,599,607
106550,490,473,539
106554,499,409,424
106558,518,504,430
106562,518,621,552
106566,499,584,609
106570,493,454,513
106574,509,416,411
106578,527,521,456
106583,519,611,576
106586,498,551,596
106590,495,432,483
106594,514,435,405
106598,530,552,479
106602,515,609,593
106606,494,519,577
106610,497,411,455
106614,519,446,409
106618,527,567,509
106622,505,594,606
106627,487,490,557
106631,500,408,435
106635,521,473,421
106639,522,587,538
106642,502,582,606
106646,489,465,526
106650,503,414,413
106654,520,505,435
106658,516,606,561
106662,493,562,604
106667,487,435,499
106671,505,419,408
106675,520,533,462
106679,512,612,582
106683,493,539,589
106687,494,422,471
106691,515,439,410
106695,526,563,496
106698,512,609,602
106701,493,512,572
106705,500,414,451
106710,522,461,416
106714,526,584,525
106718,505,596,610
106722,489,479,547
106726,500,405,427
106730,517,482,429
106734,521,594,551
106738,502,571,610
106742,494,451,516
106746,510,410,411
106750,525,510,447
106755,521,604,570
106758,500,551,600
106762,494,431,489
106766,512,428,404
106770,526,545,472
106774,513,612,588
106778,493,530,582
106782,493,421,463
106786,512,451,414
106790,519,576,505
106795,505,604,606
106799,489,498,562
106803,496,410,439
106807,517,471,420
106811,520,595,536
106814,501,593,613
106818,486,475,535
106822,501,416,419
106826,522,505,437
106830,519,612,563
106834,496,575,609
106839,485,452,506
106843,508,425,409
106847,525,529,461
106851,515,613,587
106855,492,549,599
106859,491,433,480
106863,513,441,406
106867,526,562,486
106870,510,616,600
106874,489,522,575
106878,493,420,452
106883,515,464,414
106887,522,588,518
106891,504,606,615
106895,488,492,559
106899,496,412,433
106903,514,483,428
106907,517,600,547
106911,498,587,610
106915,488,465,525
106919,504,419,417
106924,521,515,447
106927,515,611,573
106931,493,564,603
106935,487,444,497
106939,506,432,408
106943,520,544,470
106947,514,613,588
106951,495,534,588
106955,496,421,466
106959,518,444,404
106963,526,567,491
106968,508,604,598
106972,489,505,563
106976,497,412,437
106980,515,467,414
106983,521,591,525
106987,505,596,609
106991,491,478,542
106995,502,411,426
106999,520,494,433
107003,520,601,556
107008,501,572,610
107012,492,447,519
107016,509,412,413
107020,525,520,454
107024,515,607,575
107028,492,544,595
107032,491,424,484
107036,513,427,406
107039,527,546,478
107043,514,604,590
107047,494,516,575
107052,499,410,454
107056,523,446,408
107060,529,570,504
107064,509,597,600
107068,493,485,553
107072,503,406,434
107076,521,477,421
107080,523,597,542
107084,503,587,608
107088,492,463,528
107092,505,410,415
107096,523,507,438
107100,520,609,563
107104,498,565,604
107108,491,437,499
107112,509,420,410
107116,524,536,468
107120,514,612,585
107124,496,535,592
107128,494,417,473
107132,513,432,404
107137,523,558,491
107141,508,604,603
107145,491,507,572
107149,499,410,444
107152,520,456,410
107156,527,578,519
107160,510,591,612
107164,491,476,548
107168,500,406,426
107172,518,486,425
107176,517,598,546
107181,498,575,607
107185,493,451,518
107189,508,412,418
107193,526,514,452
107197,519,607,575
107201,498,554,603
107205,492,434,494
107208,510,433,410
107212,523,550,476
107216,511,610,590
107220,490,525,581
107225,491,411,465
107229,512,436,409
107233,519,560,505
107237,502,593,609
107241,483,491,566
107245,493,405,441
107249,514,463,420
107253,519,581,535
107257,500,577,614
107261,486,457,539
107265,500,398,426
107269,520,489,440
107273,516,595,562
107277,493,559,614
107281,485,436,513
107285,505,409,405
107289,524,518,458
107293,517,604,584
107297,496,537,593
107301,493,416,474
107305,513,422,405
107310,525,544,487
107314,511,600,601
107318,492,512,576
107321,496,408,453
107325,516,448,416
107329,522,568,518
107333,504,589,613
107337,489,482,555
107341,499,406,430
107345,519,476,425
107350,518,591,544
107354,498,578,612
107358,488,458,523
107362,504,407,408
107366,524,503,435
107370,517,600,563
107374,494,552,600
107377,488,430,494
107381,504,420,407
107385,521,534,472
107389,513,601,593
107394,494,521,591
107398,492,409,471
107402,512,434,412
107406,522,557,502
107410,509,594,608
107414,493,490,569
107418,499,399,440
107422,518,457,410
107426,521,580,522
107430,504,581,610
107433,490,465,539
107438,500,406,421
107442,520,492,427
107446,518,601,551
107450,498,569,609
107454,490,443,512
107458,507,411,413
107462,525,519,455
107466,516,608,577
107470,496,551,598
107474,494,431,483
107479,515,432,406
107483,529,548,484
107487,516,606,598
107490,496,519,582
107494,500,414,459
107498,522,446,412
107502,530,567,511
107506,509,593,607
107510,489,488,556
107514,501,408,433
107518,522,474,422
107523,525,593,540
107527,504,583,607
107531,496,462,526
107535,509,409,414
107539,523,500,438
107543,517,602,561
107546,497,564,604
107550,489,443,501
107554,504,420,407
107558,520,529,464
107563,513,607,583
107567,492,537,593
107571,493,422,474
107575,513,435,409
107579,525,558,493
107583,513,607,602
107587,493,513,572
107591,495,416,450
107595,515,461,418
107599,520,586,523
107602,501,594,611
107607,489,475,549
107611,499,403,429
107615,522,482,432
107619,521,597,551
107623,497,577,612
107627,485,453,520
107631,504,415,411
107635,523,520,448
107639,514,613,571
107643,491,559,599
107648,489,438,484
107652,509,434,401
107656,521,554,472
107659,508,624,591
107663,492,535,585
107667,494,419,461
107671,514,448,405
107675,525,574,502
107679,510,604,606
107683,491,494,569
107687,498,407,444
107692,522,473,420
107696,524,596,529
107700,501,591,607
107704,486,470,531
107708,499,413,411
107712,520,505,427
107715,518,611,553
107718,495,566,602
107722,486,438,502
107726,503,415,405
107730,521,528,455
107735,515,611,578
107739,492,539,596
107743,490,421,481
107747,514,435,410
107751,526,561,487
107755,513,611,597
107759,492,516,574
107763,494,413,451
107767,518,453,410
107771,527,576,513
107774,508,595,609
107779,491,481,555
107783,501,404,435
107787,524,481,429
107791,524,600,544
107795,499,582,611
107799,487,457,525
107803,504,411,415
107807,524,511,448
107811,517,610,570
107815,495,559,602
107820,489,433,492
107824,508,423,404
107828,524,542,465
107831,511,609,586
107835,491,524,585
107839,493,410,465
107843,513,438,405
107847,524,567,497
107851,508,610,605
107855,488,502,573
107859,494,406,445
107864,516,466,419
107868,520,591,530
107872,502,591,615
107876,487,467,548
107880,496,401,430
107884,517,490,437
107887,517,604,561
107891,495,571,616
107895,490,442,515
107899,508,408,412
107904,523,517,454
107908,514,606,578
107912,495,545,599
107916,493,424,485
107920,513,427,408
107924,525,547,484
107928,512,602,593
107932,491,508,578
107936,492,404,455
107940,514,449,408
107943,525,578,510
107948,508,598,606
107952,488,481,556
107956,496,399,433
107960,521,474,419
107964,523,595,540
107968,502,581,614
107972,490,455,531
107976,503,404,424
107980,524,504,446
107984,519,610,567
107988,496,560,610
107993,488,435,507
107997,507,420,411
108000,520,535,466
108004,513,606,588
108008,494,528,596
108012,497,410,473
108016,518,432,404
108020,530,561,486
108024,515,608,590
108028,495,513,544
108033,498,415,412
108037,518,463,379
108041,524,590,521
108045,502,598,623
108049,486,481,552
108053,497,407,423
108056,519,493,389
108060,519,615,529
108064,498,585,612
108068,487,457,496
108072,504,415,398
108077,525,516,447
108081,519,604,593
108085,495,540,607
108089,489,415,493
108093,508,418,416
108097,523,546,485
108101,513,612,613
108105,496,526,608
108109,495,411,470
108112,514,447,408
108116,524,581,474
108121,509,611,500
108125,494,487,466
108129,500,392,439
108133,521,462,450
108137,522,585,534
108141,500,584,619
108145,490,465,560
108149,504,405,472
108153,524,503,471
108157,519,609,588
108162,497,544,627
108166,488,407,521
108169,505,388,440
108173,521,498,489
108177,513,577,609
108181,491,487,610
108185,490,364,472
108189,508,394,393
108193,521,538,472
108197,509,593,605
108201,492,498,579
108206,495,399,450
108210,516,442,362
108214,521,573,430
108218,504,591,616
108222,490,484,559
108225,495,422,421
108229,519,490,406
108233,521,603,571
108237,497,580,638
108241,481,455,520
108246,489,411,403
108250,504,505,430
108254,525,596,554
108258,511,535,595
108262,501,438,472
108266,517,473,411
108270,533,564,472
108274,521,616,599
108278,496,518,636
108281,495,411,499
108285,516,440,410
108290,526,556,485
108294,512,623,545
108298,494,543,544
108302,497,420,470
108306,518,452,422
108310,519,570,503
108314,482,603,574
108318,483,524,510
108322,482,504,379
108326,470,570,417
108331,464,625,548
108335,467,564,618
108338,453,460,522
108341,427,473,388
108345,462,591,413
108349,501,668,522
108353,517,606,571
108357,526,424,503
108361,526,436,390
108365,521,595,494
108369,482,638,637
108374,461,472,612
108378,468,367,420
108382,416,503,324
108386,429,630,495
108390,498,600,599
108394,497,454,558
108397,412,348,456
108401,482,401,426
108405,459,490,585
108409,451,489,676
108413,450,435,523
108418,451,447,398
108422,469,613,397
108426,448,671,577
108430,420,585,630
108434,486,434,510
108438,528,395,452
108442,509,498,489
108446,476,643,545
108450,450,629,574
108453,410,486,529
108457,322,459,452
108462,382,610,545
108466,530,643,632
108470,535,535,560
108474,487,454,440
108478,497,482,428
108482,512,558,591
108486,460,611,633
108490,463,582,518
108494,462,450,468
108498,466,494,429
108503,454,632,544
108507,392,594,662
108510,499,505,539
108514,605,541,380
108518,540,584,496
108522,435,581,657
108526,443,488,681
108530,473,419,518
108534,504,556,362
108538,502,637,461
108542,570,726,531
108547,508,571,636
108551,476,379,555
108555,525,371,478
108559,497,498,546
108563,521,585,615
108566,530,557,582
108570,482,488,438
108574,448,510,397
108578,530,645,500
108582,548,605,569
108587,510,551,430
108591,581,412,482
108595,646,374,539
108599,568,463,636
108603,493,544,599
108607,456,406,522
108611,501,333,414
108615,543,469,501
108619,587,634,544
108622,529,594,592
108626,488,496,491
108631,445,510,368
108635,442,522,473
108639,551,578,584
108643,561,481,646
108647,456,352,514
108651,417,445,393
108655,585,607,525
108659,575,700,620
108663,564,545,604
108667,521,372,460
108672,543,376,450
108676,533,504,565
108679,525,490,647
108683,505,398,552
108687,480,482,359
108691,438,689,347
108695,457,656,618
108699,459,480,691
108703,477,426,482
108707,523,564,357
108711,494,546,551
108716,508,459,697
108720,508,338,672
108724,480,310,488
108728,510,388,396
108732,473,569,500
108735,466,525,669
108739,468,378,624
108743,452,317,446
108747,420,485,333
108751,429,593,559
108755,531,499,698
108760,452,340,632
108764,532,342,439
108768,579,548,381
108772,558,684,581
108776,546,565,646
108780,536,337,582
108784,483,288,465
108788,512,576,370
108791,498,780,502
108795,498,512,657
108800,511,215,584
108804,529,200,471
108808,567,447,474
108812,447,585,630
108816,408,397,665
108820,525,256,504
108824,594,389,384
108828,548,590,472
108832,448,509,653
108836,561,387,587
108840,628,449,412
108845,558,558,432
108848,514,600,587
108852,548,595,592
108856,552,475,500
108860,552,383,413
108864,533,435,472
108868,513,556,563
108872,485,592,622
108876,474,445,490
108880,579,298,473
108884,603,381,515
108889,495,539,635
108893,463,588,552
108897,500,532,435
108901,545,372,459
108904,529,404,557
108908,435,504,582
108912,421,501,530
108916,562,346,440
108920,610,379,381
108924,563,566,523
108929,578,573,644
108933,574,583,547
108937,584,505,461
108941,536,535,413
108945,509,577,537
108949,446,550,561
108953,548,461,516
108957,607,339,476
108960,543,407,469
108964,449,513,601
108968,502,447,635
108973,490,377,493
108977,411,448,391
108981,518,557,429
108985,561,584,603
108989,534,436,627
108993,479,349,460
108997,581,413,369
109001,585,565,440
109005,600,705,531
109009,631,501,618
109014,588,327,500
109017,555,449,404
109021,560,759,452
109025,497,644,664
109029,466,321,617
109033,519,235,458
109037,554,407,435
109041,467,563,534
109045,411,518,611
109049,467,364,513
109053,526,387,432
109058,514,503,470
109062,485,645,509
109066,523,524,572
109070,592,360,469
109073,645,364,410
109077,634,565,455
109081,584,648,607
109085,513,489,615
109089,491,465,366
109093,461,569,331
109097,510,563,551
109102,541,520,636
109106,491,406,576
109110,484,353,426
109114,477,441,413
109118,477,597,525
109122,499,543,620
109126,526,400,546
109129,504,417,386
109132,541,487,434
109136,592,544,554
109140,559,500,608
109145,437,414,432
109149,447,394,421
109153,571,598,394
109157,573,715,552
109161,511,491,664
109165,495,361,503
109169,571,420,386
109173,617,500,500
109177,576,534,609
109181,534,500,520
109186,523,514,368
109189,514,516,413
109193,495,557,540
109197,530,538,626
109201,452,415,539
109205,418,391,412
109209,487,511,364
109213,535,591,529
109217,513,502,602
109221,535,386,524
109225,558,349,431
109230,514,548,423
109234,509,625,614
109238,520,521,597
109241,547,398,454
109244,564,414,364
109248,595,586,416
109252,557,630,570
109256,493,603,555
109260,500,407,505
109264,548,370,409
109268,528,487,515
109273,432,565,575
109277,450,475,534
109281,531,431,421
109285,512,503,380
109289,506,565,542
109293,531,523,603
109297,560,431,526
109300,525,383,425
109304,496,484,437
109308,506,597,571
109313,478,550,613
109317,509,478,447
109321,521,489,346
109325,501,594,399
109329,554,624,618
109333,587,519,599
109337,521,393,482
109341,506,406,409
109345,520,525,485
109349,524,577,597
109353,508,490,530
109357,464,405,405
109361,434,451,387
109365,541,594,518
109369,541,603,599
109373,507,497,532
109377,469,389,418
109381,533,468,381
109385,569,616,508
109389,569,609,574
109393,510,535,473
109398,498,459,368
109402,448,492,485
109406,464,523,616
109410,545,474,606
109413,553,424,472
109417,504,414,422
109421,569,506,463
109425,551,593,579
109429,481,571,577
109433,471,509,401
109437,507,448,394
109442,537,558,490
109446,505,657,534
109450,470,617,535
109454,550,412,468
109458,637,476,374
109462,618,570,560
109466,555,530,627
109469,538,474,491
109473,553,419,412
109477,574,464,428
109481,544,613,555
109486,496,692,551
109490,482,494,504
109494,513,331,460
109498,573,437,455
109502,569,586,581
109506,550,543,578
109510,470,403,464
109514,438,401,396
109518,522,587,447
109522,528,681,584
109526,459,584,554
109530,427,440,436
109534,546,456,383
109538,581,538,531
109542,583,572,599
109546,565,479,548
109550,506,447,377
109554,547,542,403
109558,569,640,511
109562,546,619,653
109566,503,428,563
109571,487,403,380
109575,529,448,478
109579,552,532,568
109582,512,501,580
109586,456,427,477
109590,480,475,377
109594,523,579,455
109598,493,674,569
109602,406,562,557
109606,449,442,448
109611,575,454,403
109615,607,591,513
109619,563,576,635
109623,515,471,530
109627,526,417,443
109631,521,453,441
109635,527,567,537
109638,520,605,597
109642,462,499,538
109646,494,386,431
109650,523,448,446
109655,556,603,503
109659,545,608,577
109663,497,447,500
109667,528,528,284
109671,563,638,422
109675,506,578,601
109679,474,451,635
109683,462,368,505
109687,512,368,412
109691,516,498,499
109694,483,603,600
109699,479,541,541
109703,499,543,356
109707,523,618,352
109711,542,591,573
109715,519,537,672
109719,497,421,577
109723,513,387,395
109727,528,472,421
109731,499,552,551
109735,504,603,561
109740,480,537,491
109744,501,536,330
109748,558,604,424
109751,528,548,629
109755,482,454,674
109759,472,401,495
109763,445,404,401
109767,499,517,451
109771,528,604,571
109775,508,619,497
109779,526,500,416
109784,524,514,366
109788,515,545,545
109792,500,567,636
109796,484,556,554
109800,529,494,406
109804,540,445,397
109807,530,570,526
109811,531,519,688
109815,488,394,582
109819,497,370,399
109824,556,477,468
109828,545,579,551
109832,473,728,490
109836,456,588,533
109840,507,363,457
109844,525,436,456
109848,476,597,551
109852,461,597,575
109856,513,416,471
109860,509,400,409
109863,518,534,487
109868,514,692,522
109872,511,595,578
109876,474,383,478
109880,476,428,405
109884,490,553,550
109888,524,607,628
109892,530,502,520
109896,518,510,334
109900,542,680,354
109904,557,623,593
109908,506,505,663
109913,417,360,602
109917,462,322,461
109920,550,537,316
109924,555,694,524
109928,480,532,682
109932,415,383,538
109936,448,407,398
109940,539,597,432
109944,512,584,596
109948,450,488,615
109953,470,438,477
109957,481,504,333
109961,565,681,428
109965,572,680,598
109969,499,469,645
109973,480,320,502
109976,521,446,363
109979,527,614,458
109983,496,662,604
109987,479,524,568
109991,498,382,501
109996,511,427,458
110000,500,624,504
110004,469,689,544
110008,456,525,550
110012,499,409,436
110016,489,447,434
110020,419,676,477
110024,407,575,618
110028,481,405,511
110031,542,346,463
110034,576,482,448
110039,506,573,630
110043,479,522,589
110047,492,481,434
110051,540,433,413
110055,564,636,465
110059,529,681,564
110063,484,494,589
110067,469,410,402
110071,499,471,413
110075,477,571,538
110080,450,626,618
110084,494,536,533
110087,505,472,430
110090,470,510,391
110094,500,644,554
110098,468,502,685
110102,486,339,593
110106,507,379,384
110110,520,527,415
110114,490,657,547
110118,459,647,569
110123,468,465,539
110127,499,369,447
110131,508,499,454
110135,470,668,470
110139,505,547,582
110143,529,328,521
110146,518,374,405
110150,524,584,492
110154,514,625,640
110158,516,529,554
110162,517,463,439
110167,543,467,438
110171,510,556,537
110175,465,578,620
110179,446,461,537
110183,477,386,437
110187,528,501,437
110191,458,604,568
110195,428,622,582
110199,420,426,556
110202,430,370,405
110206,477,582,378
110211,563,750,555
110215,514,512,664
110219,459,328,488
110223,501,386,370
110227,498,521,483
110231,462,616,640
110235,479,523,574
110239,526,359,464
110243,502,389,441
110247,516,581,500
110252,490,706,549
110256,463,612,517
110259,484,422,441
110263,510,439,460
110267,492,566,545
110271,420,551,668
110275,390,450,559
110279,485,370,420
110283,535,459,426
110287,527,612,530
110291,492,622,561
110296,439,438,541
110300,523,428,393
110304,546,590,431
110308,507,655,595
110312,482,486,640
110315,499,345,498
110319,532,397,408
110323,527,571,500
110327,495,616,615
110331,484,520,564
110336,480,417,418
110340,506,460,375
110344,523,609,488
110348,438,627,593
110352,391,574,504
110356,484,403,433
110360,551,431,387
110364,517,645,510
110368,511,654,630
110371,473,458,540
110375,511,428,387
110380,560,473,510
110384,561,571,601
110388,510,531,623
110392,473,448,463
110396,502,421,428
110400,550,522,472
110404,512,603,558
110408,458,588,536
110412,461,509,421
110416,461,477,360
110420,507,568,520
110425,548,648,599
110428,499,482,601
110432,473,365,454
110436,485,386,438
110440,409,532,567
110444,374,583,600
110448,474,522,519
110452,486,433,414
110456,516,518,438
110460,524,630,564
110465,547,593,631
110469,524,459,476
110473,543,390,422
110477,571,482,486
110481,532,577,588
110484,508,691,492
110488,517,607,424
110492,520,420,464
110496,526,461,532
110500,510,570,593
110504,492,517,571
110509,488,406,421
110513,510,430,433
110517,512,610,528
110521,452,634,529
110525,467,528,508
110529,491,411,455
110533,470,462,426
110537,513,583,587
110540,491,572,640
110544,458,470,505
110548,508,403,381
110553,478,531,379
110557,495,670,549
110561,520,561,652
110565,490,465,486
110569,524,502,372
110573,598,583,493
110577,548,600,634
110581,514,492,593
110585,498,431,414
110589,536,482,395
110594,541,591,494
110597,478,568,629
110601,415,459,580
110605,449,406,419
110609,494,502,406
110613,501,594,535
110617,489,554,618
110621,444,443,537
110625,478,429,378
110629,564,646,323
110633,587,680,561
110638,496,528,661
110642,489,383,528
110646,517,365,408
110650,521,513,458
110653,488,628,562
110657,491,607,580
110661,490,451,499
110665,541,477,360
110669,548,641,443
110673,516,619,618
110678,465,444,620
110682,424,355,501
110686,446,474,406
110690,486,611,459
110694,526,609,620
110698,563,476,580
110702,581,393,456
110706,576,472,397
110709,527,651,451
110713,447,630,617
110717,447,452,514
110722,552,393,420
110726,572,504,420
110730,532,618,556
110734,481,572,597
110738,466,430,524
110742,503,430,395
110746,539,530,504
110750,546,649,562
110754,508,568,592
110758,464,381,470
110763,493,400,400
110766,536,530,529
110770,544,621,557
110774,493,497,551
110778,486,378,440
110782,479,445,406
110786,469,586,509
110790,464,655,591
110794,478,511,570
110798,511,423,440
110802,570,500,444
110807,562,584,558
110811,512,550,626
110815,448,432,528
110819,506,442,370
110822,527,527,468
110826,531,568,597
110830,492,503,611
110834,525,391,468
110838,526,464,366
110842,548,608,479
110846,551,627,584
110851,524,565,571
110855,490,468,404
110859,481,486,398
110863,533,577,556
110867,502,576,610
110871,442,455,579
110875,458,382,450
110878,556,514,423
110882,582,606,544
110886,537,591,594
110891,471,432,548
110895,458,386,416
110899,506,496,427
110903,564,596,567
110907,529,559,594
110911,487,437,499
110915,517,435,393
110919,571,550,445
110923,560,644,573
110927,459,559,579
110931,453,435,456
110935,537,455,408
110939,563,556,522
110943,504,591,639
110947,444,484,579
110951,436,388,443
110955,470,454,423
110959,503,606,515
110963,517,639,558
110967,489,489,527
110971,559,440,408
110976,574,526,457
110980,560,625,554
110984,518,563,631
110988,476,437,506
110991,502,446,381
110995,532,538,446
110999,553,587,631
111003,525,561,582
111007,448,447,459
111011,478,418,383
111015,495,528,468
111020,492,592,613
111024,487,501,593
111028,487,384,458
111032,507,443,397
111036,503,604,491
111040,441,663,586
111044,450,545,540
111047,514,331,476
111051,555,408,419
111055,558,601,525
111059,536,603,617
111064,497,447,541
111068,451,378,433
111072,488,527,415
111076,541,690,548
111080,526,666,589
111084,515,472,519
111088,497,363,431
111092,461,492,487
111096,486,672,554
111100,504,599,559
111104,514,396,489
111108,481,424,403
111112,485,583,492
111116,530,640,605
111120,484,499,582
111124,436,398,432
111128,489,474,377
111132,491,587,500
111136,491,605,610
111140,536,519,585
111144,555,390,487
111149,553,467,399
111153,509,674,506
111157,478,676,611
111160,457,447,564
111164,508,355,445
111168,540,505,425
111172,535,674,554
111176,482,604,600
111180,473,432,472
111184,487,437,401
111188,510,562,486
111193,497,617,590
111197,441,544,589
111201,481,475,440
111205,536,508,387
111209,521,664,487
111213,515,615,593
111216,509,478,557
111220,531,367,448
111224,529,438,405
111228,494,564,538
111233,472,555,616
111237,484,436,550
111241,493,409,415
111245,537,553,405
111249,540,606,593
111253,491,543,643
111257,489,446,494
111261,496,462,408
111265,505,562,449
111269,536,594,583
111272,508,568,589
111277,489,467,480
111281,519,408,453
111285,509,511,500
111289,457,596,571
111293,451,546,568
111297,491,452,459
111301,522,517,385
111305,520,652,498
111309,525,613,617
111313,503,459,562
111318,505,369,460
111322,549,448,450
111326,542,643,513
111329,522,661,603
111333,516,469,557
111337,522,390,448
111341,529,532,428
111345,498,700,541
111349,480,597,620
111353,464,389,549
111357,455,365,436
111362,483,553,434
111366,481,655,576
111370,500,552,598
111374,529,480,392
111378,506,522,374
111382,488,598,518
111385,506,655,605
111389,547,539,571
111393,528,435,450
111397,559,504,460
111401,557,559,561
111406,490,574,610
111410,436,437,552
111414,493,391,427
111418,547,492,444
111422,534,645,532
111426,491,647,580
111430,490,530,520
111434,504,494,376
111438,522,554,449
111441,493,705,530
111446,452,678,602
111450,457,579,482
111454,503,566,400
111458,536,646,453
111462,486,583,654
111466,464,411,599
111470,530,383,441
111474,565,410,424
111478,556,476,601
111482,506,524,633
111486,506,485,583
111491,517,424,449
111495,521,476,411
111498,517,576,560
111502,481,529,643
111506,483,417,528
111510,474,461,341
111514,508,591,373
111518,547,608,613
111522,531,549,649
111526,475,437,506
111531,472,421,389
111535,490,627,385
111539,507,693,621
111543,535,559,638
111547,509,485,482
111551,484,489,427
111554,539,507,550
111558,556,589,606
111562,512,581,557
111566,489,462,439
111570,534,409,473
111575,560,488,574
111579,528,521,615
111583,523,412,545
111587,496,344,408
111591,462,435,416
111595,481,596,542
111599,509,650,593
111603,518,515,563
111607,534,380,453
111610,540,469,457
111614,532,593,557
111619,462,605,555
111623,467,480,503
111627,527,385,454
111631,527,523,474
111635,506,672,593
111639,492,524,624
111643,466,394,456
111647,542,418,418
111651,541,509,509
111655,506,557,598
111660,513,472,591
111664,525,429,436
111667,532,436,425
111671,568,557,500
111675,542,622,580
111679,495,585,487
111683,475,450,437
111687,480,430,445
111691,520,524,551
111695,527,534,601
111699,509,452,503
111704,481,450,424
111708,524,547,445
111712,530,585,587
111716,497,499,628
111720,446,385,498
111723,494,403,391
111727,515,529,508
111731,490,584,645
111735,504,537,554
111739,504,459,434
111744,555,441,418
111748,571,606,493
111752,500,601,621
111756,480,466,581
111760,512,369,450
111764,522,473,400
111768,493,573,543
111772,509,544,629
111776,539,412,553
111779,545,366,421
111783,520,499,399
111788,525,665,550
111792,500,610,624
111796,445,436,550
111800,442,389,432
111804,503,575,408
111808,538,746,481
111812,539,595,580
111816,513,428,460
111820,507,380,418
111824,543,474,533
111828,522,547,628
111833,500,473,584
111836,512,371,471
111840,490,429,421
111844,487,594,506
111848,488,654,572
111852,502,571,523
111856,507,430,443
111860,537,464,447
111864,527,559,572
111868,514,588,576
111873,535,489,511
111877,541,403,388
111881,542,522,392
111885,512,572,579
111889,484,499,643
111892,506,402,534
111896,527,411,420
111900,505,556,461
111904,491,640,617
111908,502,524,592
111912,511,375,477
111917,527,404,391
111921,520,624,427
111925,481,734,536
111929,521,592,581
111933,557,377,495
111937,551,373,464
111941,536,528,570
111944,500,557,644
111947,454,426,543
111951,497,377,410
111955,548,499,433
111960,533,616,558
111964,530,591,613
111968,542,434,514
111972,543,390,404
111976,545,517,445
111980,525,617,577
111984,476,605,568
111988,484,567,378
111992,424,497,410
111996,460,502,533
112000,498,560,617
112003,541,458,619
112007,554,339,476
112011,539,418,411
112015,562,595,505
112019,526,656,603
112023,484,505,578
112027,477,387,450
112031,509,429,455
112035,508,538,560
112039,493,544,623
112044,519,439,519
112048,531,426,379
112052,526,515,418
112056,510,599,558
112059,486,543,626
112063,449,433,491
112067,469,450,387
112071,506,588,437
112075,465,684,566
112079,458,555,581
112083,526,428,444
112088,557,427,434
112092,517,539,517
112096,506,662,568
112100,477,531,603
112104,542,395,466
112108,560,424,418
112112,548,559,513
112115,512,603,601
112119,487,475,569
112123,501,370,449
112128,501,455,429
112132,526,592,562
112136,526,609,596
112140,439,485,473
112144,401,402,411
112148,488,502,454
112152,543,596,549
112156,507,543,615
112160,488,438,497
112164,563,430,402
112168,586,569,463
112172,538,598,624
112176,451,527,569
112180,458,406,472
112184,536,453,412
112188,551,625,498
112192,526,608,608
112196,508,482,555
112200,479,363,462
112204,527,436,432
112208,546,556,567
112212,502,547,623
112217,493,443,531
112221,518,411,407
112225,534,526,400
112228,529,661,528
112232,467,558,639
112236,438,393,537
112240,415,404,406
112244,507,560,445
112248,537,633,576
112252,493,543,601
112257,447,456,453
112261,523,453,398
112265,599,537,508
112269,561,574,608
112273,491,552,550
112277,456,461,443
112281,481,416,445
112284,544,518,545
112288,552,545,620
112292,538,439,561
112296,537,397,434
112301,506,523,400
112305,480,632,547
112309,462,599,635
112313,484,467,527
112317,537,396,398
112321,558,476,444
112325,538,593,569
112329,442,597,592
112333,416,483,476
112337,500,455,384
112340,556,572,461
112345,546,616,591
112349,471,506,587
112353,512,379,462
112357,545,427,423
112361,583,556,508
112365,536,588,613
112369,495,470,576
112373,498,385,424
112377,503,511,381
112381,517,667,504
112386,508,611,630
112390,499,438,563
112394,496,364,435
112397,496,510,411
112401,464,635,555
112405,531,560,617
112409,531,413,496
112413,532,384,433
112417,559,523,490
112421,571,641,583
112425,532,561,618
112430,505,423,490
112434,503,453,384
112438,542,566,485
112442,543,599,601
112446,516,513,545
112450,516,401,472
112453,511,445,426
112457,526,579,510
112461,533,586,600
112465,488,491,531
112470,498,435,406
112474,525,533,417
112478,513,587,567
112482,497,545,622
112486,496,420,536
112490,511,399,416
112494,523,551,412
112498,531,654,546
112502,511,543,636
112506,501,382,535
112509,551,375,442
112514,601,517,480
112518,575,607,582
112522,524,545,563
112526,534,431,448
112530,557,438,389
112534,546,561,496
112538,513,633,574
112542,486,530,558
112546,489,419,424
112550,501,498,388
112555,525,658,521
112559,516,614,632
112563,476,436,561
112566,450,369,418
112570,520,500,413
112574,562,617,549
112578,530,567,625
112582,513,393,516
112586,557,350,448
112590,535,475,462
112594,485,584,542
112599,498,531,583
112603,510,402,487
112607,558,419,423
112611,594,552,485
112615,562,594,593
112619,496,507,566
112622,483,448,439
112626,556,530,338
112630,575,596,546
112634,516,607,621
112638,463,500,553
112643,490,441,404
112647,535,447,442
112651,590,559,555
112655,550,575,635
112659,488,475,522
112663,511,463,408
112667,553,513,453
112671,572,590,549
112675,542,613,562
112678,503,449,538
112683,497,368,451
112687,559,478,495
112691,567,592,607
112695,551,539,581
112699,531,426,457
112703,524,420,417
112707,561,552,499
112711,539,643,584
112715,482,555,584
112719,497,447,465
112723,537,463,444
112728,544,550,554
112732,457,604,590
112735,464,534,549
112739,530,402,443
112743,568,461,409
112747,515,585,555
112751,495,546,628
112755,497,436,540
112759,469,438,400
112763,537,590,428
112768,564,612,610
112772,543,536,596
112776,527,436,453
112780,523,402,415
112784,541,514,495
112788,504,663,546
112791,497,617,563
112795,513,403,505
112799,527,382,444
112803,508,546,517
112807,494,623,603
112812,462,556,532
112816,471,435,451
112820,498,431,444
112824,519,547,557
112828,483,552,627
112832,499,451,515
112836,544,430,397
112840,544,538,409
112844,541,663,560
112847,518,580,608
112850,491,418,511
112855,519,378,385
112859,522,557,427
112863,523,602,616
112867,484,494,628
112871,461,382,479
112875,520,416,394
112879,565,553,478
112883,517,624,589
112887,482,558,571
112891,501,460,475
112896,502,446,449
112900,526,557,529
112903,495,575,599
112906,470,486,524
112910,485,392,445
112914,550,532,388
112918,545,670,532
112922,475,543,646
112926,468,393,557
112930,487,392,400
112934,484,522,399
112939,499,619,562
112943,514,535,622
112947,492,388,532
112951,524,388,419
112955,547,581,451
112959,538,677,588
112962,486,538,598
112966,462,385,478
112970,512,440,408
112974,518,600,490
112978,452,637,596
112983,433,533,532
112987,499,460,378
112991,522,482,458
112995,523,576,580
112999,476,637,622
113003,514,455,569
113007,537,325,448
113011,542,394,423
113015,519,547,557
113018,507,553,594
113022,461,483,473
113027,483,466,398
113031,527,487,479
113035,516,572,572
113039,524,542,585
113043,500,449,482
113047,526,445,426
113051,547,539,495
113055,519,592,607
113059,486,494,599
113063,466,414,454
113068,454,467,411
113072,496,579,504
113075,486,617,599
113079,444,490,533
113083,472,418,411
113087,517,467,447
113091,528,582,553
113095,545,586,620
113099,540,430,539
113103,541,381,421
113107,527,500,446
113112,517,616,559
113116,486,563,609
113120,480,425,513
113124,508,419,398
113128,534,567,442
113131,488,625,601
113135,463,526,599
113139,422,376,481
113143,426,382,411
113147,513,565,466
113152,548,690,574
113156,512,543,577
113160,467,366,475
113164,474,405,397
113168,493,550,547
113172,494,590,624
113176,524,508,530
113180,515,400,449
113184,493,469,449
113187,522,613,537
113191,473,648,578
113196,465,568,496
113200,520,427,441
113204,527,430,486
113208,506,520,595
113212,453,496,594
113216,484,403,483
113220,527,413,415
113224,552,529,496
113228,531,618,582
113232,467,545,570
113236,441,430,463
113241,493,455,414
113244,504,560,513
113248,500,595,599
113252,480,515,559
113256,440,409,427
113260,495,465,401
113264,522,636,520
113268,484,620,637
113272,486,438,558
113276,499,369,438
113281,535,459,471
113285,511,590,547
113289,492,581,589
113293,511,460,490
113297,523,446,404
113300,538,566,441
113304,534,587,585
113308,505,542,601
113312,482,491,471
113316,493,443,437
113320,513,478,509
113325,491,518,624
113329,493,448,573
113333,485,444,394
113337,487,493,420
113341,478,561,538
113345,454,581,586
113349,470,521,522
113353,495,405,459
113356,532,432,465
113360,544,556,556
113364,492,556,610
113369,465,429,532
113373,492,401,408
113377,517,526,435
113381,498,604,576
113385,438,560,620
113389,455,452,497
113393,540,422,406
113397,576,533,457
113401,524,605,591
113405,465,540,594
113410,445,432,473
113413,447,423,390
113417,492,561,452
113421,519,621,608
113425,518,495,589
113429,501,399,439
113433,514,458,428
113437,492,564,539
113441,497,579,605
113445,478,498,516
113449,510,423,418
113454,529,483,415
113458,508,578,567
113462,495,577,608
113466,494,437,527
113469,482,383,434
113473,501,467,476
113477,525,557,590
113481,517,510,584
113485,472,452,450
113489,481,472,406
113494,516,522,478
113498,524,556,591
113502,480,493,562
113506,399,397,452
113510,449,420,428
113514,533,540,514
113518,514,595,582
113522,477,529,525
113525,491,427,425
113529,500,499,400
113533,489,610,539
113538,536,565,618
113542,525,443,531
113546,557,416,415
113550,550,512,418
113554,533,617,548
113558,499,583,605
113562,491,405,533
113566,505,352,446
113570,522,480,457
113574,493,633,560
113579,461,611,543
113582,432,462,439
113586,451,398,408
113590,471,521,498
113594,476,620,595
113598,450,502,582
113602,460,367,466
113606,517,400,438
113610,510,545,519
113614,532,586,577
113618,504,470,551
113623,448,392,441
113627,476,500,429
113631,514,697,494
113635,530,651,586
113638,529,429,545
113642,499,366,429
113646,515,526,437
113650,538,629,574
113654,509,564,625
113658,497,410,508
113662,501,378,409
113667,477,509,482
113671,450,610,588
113675,459,552,554
113679,466,423,463
113683,477,452,412
113687,537,584,509
113691,503,615,600
113694,466,537,554
113697,476,437,447
113701,522,435,409
113705,536,577,503
113710,544,587,612
113714,494,448,562
113718,477,385,421
113722,503,471,426
113726,532,599,527
113730,499,587,601
113734,487,431,557
113738,496,393,425
113742,493,529,449
113746,496,654,555
113751,503,574,596
113754,485,422,494
113758,457,417,402
113762,428,559,487
113766,455,618,607
113770,533,523,575
113774,518,397,455
113778,485,436,392
113782,559,591,506
113786,563,614,616
113790,511,470,573
113795,497,386,425
113799,536,478,413
113803,540,594,535
113807,502,581,609
113810,468,440,535
113814,472,396,407
113818,480,540,426
113822,498,641,540
113826,493,588,587
113830,491,444,516
113835,501,389,401
113839,492,488,479
113843,477,566,615
113847,470,529,592
113851,459,437,449
113855,488,431,417
113859,519,533,521
113863,483,589,604
113866,482,493,556
113870,514,378,451
113874,554,424,402
113879,530,569,519
113883,487,593,620
113887,500,487,534
113891,522,427,403
113895,532,497,429
113899,532,580,574
113903,488,551,628
113907,460,453,509
113911,491,434,383
113915,525,516,445
113920,508,609,568
113923,415,569,603
113927,400,456,491
113931,458,434,414
113935,484,538,494
113939,495,610,604
113943,527,535,556
113947,552,430,444
113951,570,438,423
113955,545,559,522
113959,507,605,617
113964,471,509,545
113968,484,435,403
113972,527,489,415
113976,531,581,556
113979,511,576,630
113983,525,468,515
113987,502,406,404
113991,514,501,418
113995,526,620,553
113999,507,579,600
114003,502,419,512
114008,526,402,419
114012,528,536,447
114016,482,627,566
114020,430,550,597
114024,392,425,494
114028,462,444,423
114032,534,564,478
114035,548,625,575
114039,516,569,529
114043,510,458,458
114048,554,446,410
114052,554,548,531
114056,507,558,629
114060,478,451,558
114064,513,402,406
114068,528,516,413
114072,502,633,535
114076,445,579,624
114080,426,427,531
114084,516,394,413
114088,549,542,416
114092,526,629,567
114096,464,558,602
114100,400,419,489
114104,444,402,419
114108,540,534,484
114112,562,630,597
114116,535,524,595
114120,511,389,464
114124,496,425,396
114128,486,571,500
114132,525,638,599
114137,504,523,554
114141,497,419,431
114145,533,468,424
114148,533,611,521
114152,509,611,597
114156,481,470,532
114160,471,395,435
114164,492,500,444
114168,494,612,555
114172,507,574,612
114177,495,458,502
114181,480,470,388
114185,501,517,463
114189,508,575,603
114193,469,528,618
114197,489,426,479
114201,512,431,402
114204,488,539,494
114208,508,602,592
114212,520,528,572
114216,534,425,465
114221,534,464,431
114225,531,591,508
114229,496,617,586
114233,466,513,544
114237,463,424,423
114241,499,478,436
114245,526,595,545
114249,513,590,616
114253,452,456,551
114257,469,395,426
114260,526,501,420
114265,521,610,561
114269,517,553,609
114273,508,441,514
114277,495,418,397
114281,513,538,444
114285,502,602,597
114289,479,508,624
114293,486,390,491
114297,515,413,417
114301,476,549,487
114306,462,609,578
114310,484,531,566
114314,539,424,438
114317,539,483,413
114321,543,586,539
114325,465,582,602
114329,448,475,523
114333,467,434,412
114337,503,508,443
114341,559,616,544
114345,545,563,627
114350,502,421,528
114354,489,375,431
114358,493,480,447
114362,545,594,565
114366,528,567,569
114370,514,435,485
114373,498,410,405
114377,489,529,481
114381,497,605,586
114385,507,542,561
114390,514,428,452
114394,510,447,409
114398,535,594,496
114402,518,613,611
114406,499,513,536
114410,512,416,439
114414,537,449,441
114418,533,573,559
114422,503,580,625
114426,471,453,541
114429,475,393,424
114434,483,503,436
114438,505,614,575
114442,526,603,604
114446,492,453,519
114450,487,396,408
114454,528,523,455
114458,489,622,581
114462,489,527,603
114466,489,412,461
114470,520,461,393
114475,499,584,492
114479,479,603,588
114483,494,492,588
114486,523,399,462
114490,577,441,410
114494,574,589,516
114498,541,585,615
114502,502,462,549
114506,505,406,435
114510,530,523,400
114514,530,622,527
114519,491,577,616
114523,480,456,527
114527,497,405,427
114531,479,491,468
114535,479,593,587
114539,521,533,630
114542,514,404,508
114546,482,419,386
114550,490,536,474
114554,481,607,603
114558,469,526,591
114563,525,412,463
114567,567,441,417
114571,575,556,498
114575,543,602,600
114579,483,509,555
114583,462,422,440
114587,504,477,407
114591,537,600,524
114595,540,589,611
114598,518,449,537
114603,514,401,421
114607,500,512,425
114611,431,628,568
114615,420,573,630
114619,501,431,530
114623,563,401,399
114627,505,522,439
114631,446,627,592
114635,493,574,619
114639,540,436,484
114643,562,405,432
114648,479,517,491
114652,458,606,576
114655,538,550,559
114659,549,403,461
114663,566,421,426
114667,562,567,522
114671,524,618,599
114675,473,499,548
114679,460,405,431
114683,500,476,439
114688,523,588,557
114692,498,582,610
114696,492,455,523
114700,448,423,406
114704,432,540,442
114708,507,646,553
114711,532,590,564
114715,507,443,495
114719,504,417,406
114723,538,523,493
114727,526,608,601
114732,510,549,585
114736,508,426,461
114740,525,442,415
114744,544,570,491
114748,529,609,608
114752,501,499,563
114756,501,398,438
114760,518,450,395
114764,525,567,534
114767,505,565,620
114771,485,458,540
114776,478,404,405
114780,486,495,407
114784,507,621,536
114788,463,595,610
114792,450,454,517
114796,503,424,407
114800,541,546,469
114804,541,658,554
114808,525,546,613
114812,523,378,507
114817,531,380,429
114821,545,521,494
114824,529,603,590
114828,502,524,582
114832,502,420,442
114836,522,487,379
114840,533,602,513
114844,514,588,623
114848,495,457,563
114852,501,370,435
114856,521,459,422
114861,524,611,541
114865,501,596,609
114869,487,458,547
114873,502,398,415
114877,525,489,427
114880,521,596,549
114884,498,590,575
114888,488,488,500
114892,503,438,428
114896,517,512,483
114900,508,610,570
114905,484,555,605
114909,479,385,508
114913,504,381,426
114917,512,510,496
114921,497,573,598
114925,486,493,553
114929,491,412,447
114933,512,469,404
114936,516,617,506
114940,495,611,611
114945,470,469,564
114949,485,394,438
114953,510,473,415
114957,513,593,542
114961,491,571,611
114965,477,443,529
114969,493,433,398
114973,512,531,435
114977,505,617,573
114981,481,536,620
114985,474,415,484
114990,498,414,424
114993,514,547,487
114997,498,631,590
115001,474,549,584
115005,478,406,475
115009,499,403,418
115013,502,537,531
115017,485,619,605
115021,472,535,541
115025,477,402,435
115030,501,449,402
115034,505,586,526
115038,480,610,588
115042,469,493,532
115046,483,401,429
115049,502,480,438
115053,499,611,522
115057,477,561,617
115061,471,420,538
115065,488,403,419
115069,499,520,476
115074,487,609,588
115078,470,562,598
115082,469,423,485
115086,490,416,407
115090,500,532,487
115094,487,598,604
115098,471,524,577
115102,474,410,445
115105,492,440,407
115109,500,564,509
115113,485,587,623
115118,471,479,570
115122,482,407,437
115126,502,469,440
115130,503,589,538
115134,485,594,590
115138,481,477,518
115142,500,414,395
115146,521,494,429
115150,512,618,555
115154,487,576,605
115159,485,450,488
115162,504,430,380
115166,521,530,448
115170,511,582,594
115174,492,494,607
115178,491,400,489
115182,512,446,401
115186,526,591,481
115190,511,609,609
115194,493,466,585
115198,501,372,453
115203,524,463,398
115207,525,587,530
115211,506,572,620
115215,494,462,540
115218,505,419,392
115222,525,499,434
115226,522,580,571
115230,499,549,611
115234,491,430,504
115238,511,416,396
115243,532,538,439
115247,525,606,589
115251,501,523,626
115255,498,405,491
115259,521,408,398
115263,534,571,456
115267,519,665,580
115271,497,515,597
115274,504,383,467
115278,527,425,399
115282,532,560,527
115287,511,601,612
115291,493,475,562
115295,510,385,420
115299,534,465,405
115303,533,588,539
115307,515,619,586
115311,503,503,533
115315,515,431,419
115319,535,524,445
115323,530,609,578
115328,509,538,620
115331,504,400,497
115335,525,385,409
115339,539,520,470
115343,527,605,587
115347,505,549,590
115351,504,447,459
115355,526,433,408
115359,536,539,509
115363,520,607,593
115367,501,515,575
115372,509,414,437
115376,528,475,382
115380,533,600,489
115384,513,607,642
115387,502,485,584
115391,516,403,438
115395,536,476,438
115399,534,577,571
115403,512,577,599
115407,501,492,488
115411,514,405,444
115416,535,484,481
115420,528,594,591
115424,506,555,605
115428,503,461,465
115432,523,452,376
115436,536,544,477
115440,523,599,585
115443,504,510,608
115447,506,462,425
115451,526,524,406
115456,533,578,532
115460,520,590,607
115464,504,455,582
115468,514,379,455
115472,534,486,417
115476,536,627,517
115480,514,608,596
115484,501,447,568
115488,513,384,445
115492,534,525,422
115496,536,651,576
115500,513,590,614
115503,506,449,494
115507,522,451,414
115511,538,560,426
115515,529,600,549
115519,507,579,543
115523,507,500,445
115527,526,476,425
115531,535,492,552
115535,520,497,653
115539,500,454,589
115544,510,387,445
115548,533,425,425
115552,537,556,546
115555,517,563,647
115558,503,469,557
115562,513,389,456
115566,534,430,462
115570,531,557,568
115574,508,561,612
115578,499,462,517
115582,514,415,412
115587,534,497,444
115591,529,591,586
115595,505,563,611
115599,502,440,496
115603,517,468,378
115607,529,589,482
115611,521,584,611
115614,503,485,572
115618,504,375,426
115622,524,427,404
115627,537,565,503
115631,520,587,608
115635,503,494,571
115639,510,427,433
115643,532,479,438
115647,535,575,563
115651,514,571,627
115655,498,428,537
115659,511,393,425
115663,530,534,443
115667,527,604,544
115671,508,533,591
115675,499,415,527
115679,514,407,401
115683,526,544,434
115687,520,624,565
115691,503,547,586
115695,500,416,499
115699,519,401,427
115703,532,524,496
115707,515,597,587
115712,494,605,498
115716,499,497,473
115720,522,405,464
115724,530,477,552
115727,511,527,645
115731,496,444,587
115735,506,379,418
115739,526,448,416
115743,525,572,531
115747,503,574,592
115751,495,458,515
115756,508,408,401
115760,523,526,436
115764,519,637,580
115768,501,571,618
115772,499,425,507
115776,515,400,405
115780,527,532,452
115783,516,633,575
115787,495,566,577
115791,498,422,473
115795,520,430,392
115800,529,555,476
115804,514,628,556
115808,496,581,516
115812,502,430,461
115816,522,414,437
115820,525,547,528
115824,506,590,589
115828,489,456,550
115832,503,361,432
115836,523,458,431
115840,520,597,525
115844,502,567,593
115848,494,426,508
115852,511,384,410
115856,529,502,439
115860,518,626,562
115864,498,570,588
115868,498,436,475
115872,517,434,400
115876,528,560,458
115880,517,640,573
115885,496,556,556
115889,497,411,431
115893,518,438,408
115896,525,590,504
115900,508,615,600
115904,494,470,577
115908,502,373,449
115912,521,456,431
115916,524,585,537
115920,508,591,613
115924,496,460,524
115929,508,391,413
115933,524,479,451
115937,518,599,557
115941,499,565,600
115945,495,437,499
115949,513,412,400
115952,527,537,452
115956,518,627,568
115960,498,552,583
115964,497,420,467
115969,517,431,394
115973,527,567,475
115977,511,627,589
115981,492,521,565
115985,499,410,442
115989,518,456,404
115993,524,584,507
115997,504,608,598
116001,490,495,538
116005,504,412,411
116008,523,483,405
116013,521,606,530
116017,501,598,592
116021,490,479,507
116025,509,430,402
116029,531,524,432
116033,524,627,556
116037,502,586,590
116041,495,464,480
116045,513,449,387
116049,526,563,447
116054,512,635,565
116058,497,557,565
116062,503,440,447
116065,521,458,383
116069,527,580,474
116073,511,622,578
116077,495,525,543
116081,501,432,423
116085,520,484,396
116089,521,607,510
116093,503,614,590
116098,493,495,518
116102,506,428,403
116106,524,511,413
116110,519,624,535
116114,500,601,589
116118,495,479,494
116121,509,441,395
116125,520,544,437
116129,510,632,561
116133,496,575,575
116137,497,455,465
116142,516,456,392
116146,525,575,468
116150,509,636,585
116154,490,547,566
116158,492,440,439
116162,514,471,394
116166,526,594,496
116170,510,620,593
116174,496,515,543
116177,506,432,418
116182,524,495,401
116186,522,607,515
116190,501,595,589
116194,492,471,506
116198,507,414,390
116202,521,501,411
116206,515,600,533
116210,499,559,574
116214,495,437,471
116218,513,415,376
116222,527,524,430
116227,515,604,551
116231,494,539,558
116234,498,428,441
116238,521,441,375
116242,528,557,458
116246,509,602,568
116250,489,509,538
116254,496,412,413
116258,517,456,383
116262,524,575,491
116267,506,585,578
116271,494,473,516
116275,505,403,398
116279,525,477,399
116283,521,586,522
116287,502,568,585
116290,493,449,498
116293,510,408,390
116297,524,506,425
116301,515,598,551
116305,495,548,582
116310,495,429,472
116314,516,423,384
116318,528,537,456
116322,512,605,581
116326,491,529,572
116330,494,423,447
116334,516,448,396
116338,526,569,492
116342,509,601,596
116346,493,497,555
116349,499,411,433
116354,519,466,413
116358,521,583,529
116362,503,583,603
116366,496,462,529
116370,507,403,416
116374,522,489,431
116378,517,593,553
116382,498,558,602
116386,492,436,504
116390,508,412,408
116395,519,518,457
116399,509,598,577
116403,491,534,592
116406,495,418,481
116410,514,431,408
116414,524,546,476
116418,512,596,587
116422,496,504,567
116426,501,406,446
116430,521,453,408
116434,525,579,513
116439,507,597,610
116443,495,485,559
116447,506,408,444
116451,523,481,443
116455,520,595,557
116459,501,579,619
116462,495,456,537
116466,511,411,430
116470,529,508,460
116474,521,602,584
116478,500,554,621
116483,496,433,515
116487,515,424,430
116491,527,540,487
116495,514,609,603
116499,494,533,604
116503,494,426,484
116507,514,450,425
116511,522,574,515
116515,507,614,621
116518,496,517,586
116523,503,429,464
116527,519,483,439
116531,518,601,551
116535,500,605,631
116539,488,492,568
116543,505,428,449
116547,525,505,455
116551,519,608,574
116555,497,578,625
116559,491,459,531
116563,507,426,431
116568,521,527,472
116572,508,613,593
116575,487,553,616
116579,489,439,507
116583,510,441,425
116587,522,558,494
116591,509,616,604
116595,492,532,587
116599,491,427,466
116603,508,459,423
116608,517,581,522
116612,505,608,619
116616,492,504,572
116620,502,427,454
116624,520,492,439
116628,519,606,554
116631,500,596,627
116635,492,475,547
116639,507,424,435
116643,524,514,458
116647,513,613,581
116652,494,571,625
116656,494,452,528
116660,513,435,435
116664,525,543,488
116668,516,617,610
116672,497,545,616
116676,502,433,500
116680,518,451,427
116684,528,570,509
116687,513,614,620
116691,495,518,591
116696,504,422,467
116700,525,467,432
116704,524,586,538
116708,503,597,624
116712,491,488,563
116716,504,422,446
116720,522,499,448
116724,520,608,570
116728,502,587,629
116732,495,465,543
116737,509,426,431
116741,524,524,465
116744,516,611,587
116748,495,553,615
116752,490,433,505
116756,510,431,424
116760,522,549,491
116764,513,613,605
116768,495,529,595
116772,496,423,470
116776,514,454,416
116781,521,577,510
116785,502,609,610
116789,484,503,565
116793,496,415,445
116797,524,477,427
116800,525,593,540
116804,503,590,615
116808,493,474,540
116812,507,419,429
116816,523,507,448
116820,516,610,569
116825,495,573,616
116829,487,449,513
116833,511,425,420
116837,525,531,469
116841,511,608,591
116845,495,542,604
116849,496,428,489
116853,515,440,419
116856,521,561,500
116860,504,608,609
116865,486,510,583
116869,493,414,462
116873,514,460,423
116877,517,581,525
116881,498,598,619
116885,485,487,563
116889,496,412,439
116893,516,482,433
116897,512,594,551
116901,494,578,621
116905,484,460,533
116910,500,415,417
116913,518,509,448
116917,514,605,575
116921,494,556,608
116925,490,436,503
116929,506,428,418
116933,518,541,482
116937,507,610,601
116941,488,531,597
116945,494,420,477
116950,516,444,417
116954,521,567,510
116958,504,601,613
116962,491,497,574
116966,497,407,449
116969,518,461,423
116973,521,581,536
116977,502,586,622
116981,489,473,548
116985,501,413,429
116989,521,495,436
116994,515,600,557
116998,494,568,610
117002,490,448,519
117006,508,420,421
117010,521,529,465
117014,508,611,587
117018,489,550,605
117022,491,433,494
117025,512,437,415
117029,528,555,491
117033,516,611,606
117038,497,522,591
117042,502,418,469
117046,523,453,422
117050,526,573,523
117054,506,594,619
117058,491,490,563
117062,498,408,437
117066,518,470,425
117070,516,586,540
117074,498,581,611
117079,490,465,533
117082,503,416,423
117086,518,509,452
117090,511,608,574
117094,490,562,607
117098,486,437,503
117102,504,420,412
117106,518,531,470
117110,509,606,590
117114,492,535,597
117118,491,425,479
117123,512,442,413
117127,521,560,500
117131,504,602,612
117135,484,504,580
117138,495,411,457
117142,518,462,426
117146,517,584,527
117150,499,590,609
117154,489,472,547
117158,500,404,428
117163,518,484,433
117167,514,595,562
117171,495,571,612
117175,488,447,518
117179,506,410,416
117183,522,510,453
117187,513,601,572
117191,493,544,596
117194,494,427,487
117198,513,426,407
117202,523,543,477
117207,507,607,593
117211,488,524,588
117215,492,419,470
117219,512,450,418
117223,520,572,511
117227,502,601,609
117231,489,494,564
117235,499,410,442
117239,518,470,425
117243,519,587,542
117248,499,584,616
117251,486,467,539
117255,506,412,426
117259,523,499,443
117263,515,600,564
117267,497,564,605
117271,493,444,505
117275,508,421,410
117279,518,530,461
117283,509,608,581
117287,493,542,594
117292,492,425,478
117296,513,439,409
117300,525,561,492
117304,510,609,608
117307,493,514,583
117311,499,416,457
117315,518,457,414
117319,521,575,518
117323,504,591,611
117327,492,484,554
117331,502,411,433
117336,522,484,430
117340,520,595,549
117344,499,573,613
117348,489,453,525
117352,504,410,414
117356,523,507,445
117360,517,600,568
117363,493,552,601
117367,491,435,495
117371,510,428,410
117376,525,541,472
117380,511,608,591
117384,494,531,596
117388,501,421,467
117392,519,444,406
117396,525,568,500
117400,507,605,607
117404,489,506,575
117408,498,415,454
117412,520,470,422
117416,522,589,532
117420,502,592,612
117424,489,476,543
117428,500,414,429
117432,517,500,439
117436,514,607,559
117440,494,574,609
117444,491,449,515
117448,511,417,414
117452,523,519,459
117456,511,600,580
117460,491,536,600
117465,491,417,484
117469,511,424,403
117473,520,541,476
117476,506,596,591
117480,487,508,577
117484,490,407,455
117488,509,446,410
117492,521,570,512
117496,503,592,616
117500,488,485,559
117505,496,407,436
117509,520,478,426
117513,518,594,543
117517,500,579,614
117521,490,456,534
117525,505,408,426
117529,524,501,443
117532,516,597,561
117536,494,551,601
117540,490,430,497
117544,507,413,406
117549,520,521,465
117553,510,594,588
117557,492,523,589
117561,491,413,467
117565,510,431,404
117569,520,551,489
117573,507,591,596
117577,491,492,566
117581,497,401,444
117585,514,454,415
117588,517,577,524
117593,503,584,613
117597,490,472,552
117601,502,405,433
117605,517,484,431
117609,515,592,548
117613,500,567,606
117617,489,446,518
117621,507,414,419
117625,526,516,458
117629,517,603,586
117634,497,543,608
117638,494,423,488
117642,510,421,407
117645,527,535,476
117649,515,596,591
117653,496,516,582
117657,501,412,460
117661,520,440,412
117665,526,562,506
117669,511,591,601
117673,495,490,557
117678,503,411,435
117682,522,472,419
117686,521,587,533
117690,503,584,611
117694,494,466,535
117698,508,410,419
117701,524,494,439
117705,515,596,560
117709,499,560,602
117713,493,438,502
117718,509,414,412
117722,524,522,461
117726,514,600,581
117730,491,531,592
117734,494,418,475
117738,519,429,406
117742,526,549,484
117746,509,597,594
117750,492,503,568
117754,498,405,445
117757,517,447,409
117762,523,568,517
117766,504,587,607
117770,488,479,548
117774,501,406,425
117778,519,479,424
117782,517,590,544
117786,499,572,607
117790,493,453,522
117794,505,413,420
117798,523,507,451
117803,517,598,575
117807,498,547,605
117811,493,429,497
117814,511,422,406
117818,523,537,471
117822,510,601,586
117826,488,520,581
117830,492,409,462
117834,515,438,406
117838,523,562,497
117842,504,598,602
117847,489,495,562
117851,501,406,438
117855,519,464,412
117859,523,581,521
117863,504,581,606
117867,495,466,540
117870,509,406,421
117874,525,491,429
117878,518,596,554
117882,499,566,606
117886,494,444,509
117891,510,414,414
117895,526,516,456
117899,513,597,580
117903,493,535,598
117907,494,422,482
117911,513,430,409
117915,524,548,486
117919,510,602,599
117923,494,516,580
117926,497,415,458
117931,518,449,415
117935,521,569,516
117939,504,592,605
117943,490,483,549
117947,498,403,430
117951,521,469,418
117955,522,584,534
117959,502,572,604
117963,489,454,524
117967,505,407,416
117971,526,501,445
117976,518,598,568
117980,499,556,606
117983,496,438,499
117987,515,422,411
117991,526,532,471
117995,513,604,586
117999,494,529,593
118003,495,418,471
118007,512,436,403
118011,521,556,490
118016,505,595,600
118020,489,498,567
118024,499,406,446
118028,520,460,416
118032,524,580,522
118036,504,588,607
118039,492,473,541
118043,507,405,425
118047,521,483,426
118051,520,590,547
118055,499,565,604
118060,492,444,514
118064,508,409,410
118068,525,513,452
118072,515,603,576
118076,493,549,597
118080,489,429,488
118084,504,430,408
118088,520,544,477
118092,513,600,597
118095,493,520,589
118099,496,417,462
118104,515,446,411
118108,521,564,509
118112,504,592,609
118116,490,487,564
118120,498,407,440
118124,517,466,418
118128,517,580,534
118132,497,575,606
118136,488,459,529
118140,503,406,422
118145,520,493,432
118149,514,593,555
118152,493,557,602
118156,487,437,500
118160,506,418,406
118164,522,525,461
118168,509,601,583
118172,492,533,592
118176,494,421,476
118180,511,434,409
118184,519,553,490
118189,506,602,603
118193,488,512,576
118197,496,416,450
118201,517,458,414
118205,519,576,519
118208,501,590,608
118212,491,479,549
118216,506,408,429
118220,523,481,428
118224,518,592,546
118228,498,571,607
118233,491,449,521
118237,509,408,415
118241,526,506,444
118245,518,598,567
118249,497,551,595
118253,493,433,490
118257,515,426,408
118261,527,540,472
118264,514,604,588
118268,495,527,580
118273,496,419,459
118277,516,444,407
118281,523,563,503
118285,507,596,604
118289,493,494,563
118293,502,405,440
118297,521,463,420
118301,523,581,527
118305,504,581,608
118309,492,463,536
118313,505,402,422
118318,520,484,431
118321,513,587,552
118325,492,559,600
118329,490,441,502
118333,507,409,404
118337,517,509,452
118341,506,594,573
118345,484,537,590
118349,488,424,476
118353,508,427,404
118358,520,542,481
118362,506,598,594
118366,489,513,577
118370,496,412,452
118374,516,449,414
118377,522,568,515
118381,504,588,606
118385,487,481,554
118389,501,403,435
118393,523,470,426
118397,523,582,542
118402,502,571,606
118406,491,455,522
118410,507,407,412
118414,524,497,440
118418,518,594,566
118422,497,556,603
118426,494,439,498
118430,513,423,409
118433,527,532,464
118437,513,602,582
118441,492,526,584
118446,496,417,466
118450,515,432,406
118454,523,552,497
118458,506,595,602
118462,489,503,569
118466,498,412,446
118470,517,461,416
118474,518,578,524
118478,497,582,607
118482,488,471,540
118487,502,409,425
118490,522,486,432
118494,517,590,550
118498,497,564,605
118502,493,443,512
118506,508,409,411
118510,523,512,451
118514,515,599,571
118518,496,542,595
118522,496,425,487
118526,516,425,406
118531,526,540,475
118535,508,603,588
118539,491,523,572
118543,498,416,452
118546,520,440,405
118550,526,560,504
118554,510,591,604
118558,493,493,557
118562,502,412,435
118566,520,468,417
118571,521,583,533
118575,502,584,611
118579,492,470,532
118583,504,414,422
118587,524,495,443
118591,519,594,566
118595,496,559,605
118599,490,442,506
118602,508,420,412
118606,521,522,463
118610,510,597,584
118615,495,532,592
118619,496,421,474
118623,513,432,407
118627,523,548,488
118631,506,597,596
118635,491,508,571
118639,496,412,448
118643,516,456,411
118647,519,576,515
118651,503,592,608
118656,491,481,547
118659,502,409,434
118663,518,483,434
118667,514,591,551
118671,496,570,610
118675,491,452,521
118679,508,412,415
118683,521,505,452
118687,513,597,570
118691,493,547,598
118695,492,430,491
118700,511,421,410
118704,520,531,475
118708,505,593,590
118712,491,514,580
118715,496,409,460
118719,514,437,406
118723,523,561,501
118727,505,597,606
118731,492,496,561
118735,501,407,439
118739,520,465,418
118744,520,585,530
118748,502,584,610
118752,492,470,537
118756,505,413,420
118760,523,495,437
118764,516,595,558
118768,498,563,605
118771,494,445,510
118775,511,417,410
118779,523,517,457
118784,512,600,579
118788,490,540,593
118792,492,427,477
118796,512,431,402
118800,521,547,482
118804,507,600,594
118808,490,510,570
118812,495,410,446
118816,515,446,404
118820,521,566,505
118824,501,586,596
118828,488,482,544
118832,497,405,428
118836,518,472,422
118840,520,584,539
118844,499,575,609
118848,489,463,525
118852,508,417,415
118856,528,504,444
118860,520,598,563
118864,497,556,601
118868,489,439,500
118873,508,427,411
118877,521,533,470
118881,513,602,586
118884,495,527,585
118888,499,416,469
118892,517,433,405
118896,522,550,490
118900,503,589,593
118904,486,494,559
118908,492,406,436
118913,516,455,411
118917,523,575,518
118921,503,587,608
118925,488,480,540
118929,501,414,421
118933,520,489,426
118937,515,591,546
118940,495,566,603
118944,490,449,513
118948,507,414,415
118952,521,514,456
118957,511,599,579
118961,492,543,601
118965,491,431,489
118969,508,428,407
118973,514,540,478
118977,501,597,595
118981,490,516,580
118985,497,415,458
118989,517,448,409
118993,523,565,506
118996,503,592,605
119001,489,488,558
119005,499,409,437
119009,521,472,420
119013,521,581,536
119017,502,574,607
119021,492,462,531
119025,503,415,421
119029,523,500,440
119033,517,594,561
119037,500,554,603
119042,494,435,501
119046,513,412,409
119050,525,519,465
119053,514,594,589
119057,495,526,592
119061,496,417,473
119065,515,431,406
119069,524,547,491
119073,510,594,599
119077,496,503,572
119081,503,408,447
119086,523,453,414
119090,524,570,519
119094,503,581,604
119098,491,473,546
119102,505,406,428
119106,524,482,427
119109,522,590,540
119113,500,570,602
119117,492,449,513
119121,507,411,411
119126,525,509,449
119130,516,597,571
119134,497,546,598
119138,494,432,488
119142,514,426,406
119146,527,539,477
119150,513,600,590
119154,492,519,581
119158,494,415,459
119162,514,443,408
119165,524,563,505
119170,510,594,607
119174,495,493,562
119178,502,408,440
119182,519,464,420
119186,517,579,533
119190,496,580,606
119194,487,467,530
119198,498,411,416
119202,517,495,433
119206,513,595,556
119211,492,562,603
119215,486,444,502
119219,506,418,406
119222,519,522,457
119226,509,599,581
119230,492,536,593
119234,494,425,478
119238,513,432,413
119242,525,547,491
119246,510,596,597
119250,489,505,575
119255,496,409,456
119259,518,451,416
119263,522,571,521
119267,502,589,608
119271,486,481,548
119275,496,406,427
119278,518,473,421
119282,520,581,541
119286,501,569,610
119290,491,458,529
119294,506,416,420
119299,527,505,449
119303,521,597,575
119307,496,554,603
119311,492,437,493
119315,514,425,405
119319,527,532,468
119323,514,601,589
119327,497,534,589
119331,500,427,469
119334,519,445,410
119339,525,563,500
119343,507,604,604
119347,491,509,569
119351,500,420,447
119355,520,472,419
119359,522,589,528
119363,503,592,611
119367,490,480,543
119371,505,417,425
119375,524,498,435
119379,518,602,558
119384,494,573,609
119388,487,456,511
119391,507,419,406
119395,523,515,456
119399,515,604,573
119403,493,555,589
119407,493,444,480
119411,514,438,404
119415,526,547,481
119419,511,607,593
119424,489,531,580
119428,494,430,456
119432,516,457,408
119436,520,569,508
119440,502,596,605
119444,490,496,553
119447,503,416,433
119451,522,472,422
119455,523,584,538
119459,500,582,612
119463,489,470,530
119468,502,416,421
119472,520,496,444
119476,517,593,563
119480,498,560,602
119484,493,446,497
119488,511,425,405
119492,527,530,460
119496,513,606,582
119500,493,542,587
119503,495,433,469
119507,515,441,403
119512,524,557,487
119516,507,604,596
119520,490,515,570
119524,497,422,446
119528,520,463,415
119532,523,576,523
119536,503,594,608
119540,491,488,546
119544,502,416,432
119548,519,483,431
119553,517,589,551
119557,495,571,604
119560,485,455,514
119564,503,415,411
119568,522,504,449
119572,516,593,574
119576,494,550,599
119580,491,437,488
119584,513,427,406
119588,525,537,476
119592,510,597,589
119597,491,520,578
119601,494,416,460
119605,513,441,406
119609,525,559,501
119613,506,591,605
119616,489,495,561
119620,497,414,437
119624,517,468,420
119628,519,579,536
119632,497,579,611
119636,486,471,540
119641,502,414,428
119645,519,496,443
119649,516,592,561
119653,494,558,608
119657,489,442,511
119661,511,418,411
119665,525,521,461
119669,513,600,582
119672,493,536,593
119676,491,426,475
119681,511,435,402
119685,525,550,482
119689,510,599,593
119693,494,510,570
119697,501,414,447
119701,521,455,410
119705,525,572,516
119709,504,587,604
119713,487,481,549
119717,499,412,429
119721,521,484,427
119726,517,594,544
119729,498,575,606
119733,489,457,520
119737,506,415,414
119741,523,510,445
119745,518,601,569
119749,496,553,601
119753,488,434,500
119757,507,427,415
119761,519,537,470
119766,503,602,585
119770,489,526,582
119774,496,422,463
119778,518,444,410
119782,525,560,500
119785,507,591,604
119789,492,496,565
119793,502,412,439
119797,522,467,415
119801,521,583,529
119805,501,584,608
119810,492,472,539
119814,507,413,425
119818,525,496,437
119822,520,598,556
119826,497,569,606
119830,491,451,508
119834,510,421,411
119838,525,522,456
119841,513,603,577
119845,493,545,594
119849,495,430,481
119854,516,433,407
119858,526,543,482
119862,508,600,593
119866,490,518,575
119870,496,420,455
119874,515,448,411
119878,520,565,510
119882,503,598,600
119886,489,502,548
119890,502,420,430
119895,522,474,419
119898,521,586,535
119902,497,585,603
119906,487,476,521
119910,504,421,419
119914,522,505,442
119918,516,599,564
119922,494,560,601
119926,491,446,498
119930,514,428,412
119934,526,531,466
119939,512,603,584
119943,494,540,585
119947,499,432,469
119951,520,439,408
119954,526,549,494
119958,504,599,599
119962,490,514,569
119966,498,422,444
119970,519,460,412
119974,521,572,520
119979,502,585,603
119983,493,480,539
119987,505,409,425
119991,522,473,429
119995,518,577,547
119999,501,561,602
120003,493,448,511
120007,507,412,409
120010,522,511,451
120014,514,599,576
120018,497,551,596
120023,495,436,486
120027,513,429,406
120031,522,537,476
120035,513,597,594
120039,496,523,590
120043,500,424,466
120047,520,445,409
120051,525,557,503
120055,508,591,598
120059,493,500,555
120064,502,418,433
120067,519,466,415
120071,519,575,529
120075,502,583,604
120079,492,476,531
120083,507,415,421
120087,524,492,442
120091,517,591,561
120095,497,563,600
120099,493,450,500
120103,508,419,409
120108,522,514,461
120112,511,594,581
120116,491,539,592
120120,491,430,476
120123,509,432,406
120127,519,541,489
120131,506,595,603
120135,489,517,576
120139,493,423,451
120143,515,459,415
120147,519,571,515
120152,504,593,603
120156,491,492,544
120160,502,417,424
120164,520,476,423
120168,519,579,539
120172,495,569,599
120176,486,460,515
120179,503,414,413
120183,519,499,447
120187,512,592,568
120192,491,553,598
120196,487,443,490
120200,507,428,407
120204,521,531,471
120208,507,603,590
120212,490,536,583
120216,494,426,464
120220,514,440,408
120224,520,553,499
120228,503,597,603
120232,488,511,568
120236,498,424,447
120240,518,467,416
120244,519,576,527
120248,499,581,608
120252,486,474,541
120256,497,412,428
120260,517,487,440
120264,518,590,554
120268,499,565,604
120272,494,449,508
120276,512,419,409
120281,528,515,455
120285,517,599,578
120289,497,551,595
120292,498,440,479
120296,516,434,408
120300,527,543,487
120304,510,599,597
120308,489,518,575
120312,493,417,456
120316,512,446,416
120321,522,563,517
120325,505,593,609
120329,492,494,556
120333,504,413,432
120337,524,474,424
120341,522,584,543
120345,503,578,609
120348,491,468,529
120352,506,416,419
120356,525,502,444
120360,516,599,569
120365,494,560,601
120369,493,441,497
120373,512,420,410
120377,525,523,467
120381,513,596,585
120385,494,533,584
120389,494,427,463
120393,511,439,404
120397,519,551,490
120401,507,598,597
120404,493,513,564
120409,499,423,446
120413,520,466,419
120417,524,577,526
120421,504,586,608
120425,490,479,543
120429,501,410,424
120433,525,481,426
120437,524,585,545
120441,502,568,603
120445,495,455,517
120450,512,420,415
120454,527,512,453
120458,516,597,572
120461,495,548,598
120465,495,439,486
120469,516,434,404
120473,530,539,472
120477,516,599,586
120481,495,528,577
120485,496,429,459
120489,515,455,410
120494,519,570,507
120498,502,601,604
120502,490,505,556
120506,501,420,435
120510,521,471,420
120514,522,579,533
120517,501,579,607
120521,489,470,531
120525,505,413,421
120529,524,491,444
120534,519,589,561
120538,499,558,604
120542,493,445,499
120546,514,420,404
120550,523,521,458
120554,513,599,580
120558,494,539,587
120562,491,428,469
120566,508,435,401
120570,520,548,484
120573,504,600,596
120578,486,518,575
120582,491,423,452
120586,513,458,415
120590,520,569,516
120594,502,593,604
120598,487,494,546
120602,499,416,429
120606,518,471,426
120610,521,579,545
120614,502,574,609
120619,493,465,524
120623,508,421,413
120627,525,507,442
120630,521,595,564
120634,499,552,592
120638,498,439,486
120642,515,425,403
120646,527,531,467
120650,510,599,584
120654,489,530,581
120658,495,425,461
120663,517,438,407
120667,525,548,498
120671,509,588,601
120675,489,503,562
120679,499,419,440
120683,520,466,416
120686,521,579,530
120690,503,589,611
120694,493,485,545
120698,506,423,429
120702,524,493,443
120707,519,596,559
120711,495,575,607
120715,489,461,510
120719,510,428,412
120723,526,519,459
120727,514,600,584
120731,492,549,597
120735,493,437,483
120739,514,437,410
120742,525,549,486
120747,511,607,599
120751,493,526,581
120755,498,427,463
120759,520,458,417
120763,527,573,515
120767,506,599,606
120771,493,500,552
120775,499,420,435
120779,524,479,430
120783,523,592,546
120787,501,583,614
120792,491,471,530
120796,505,419,421
120799,521,504,450
120803,516,598,569
120807,497,561,604
120811,494,447,500
120815,513,428,411
120819,525,528,468
120823,514,600,584
120827,495,536,588
120832,495,432,469
120836,515,447,407
120840,523,559,493
120844,507,600,596
120848,490,512,566
120852,498,420,442
120855,520,458,411
120859,524,575,522
120863,505,587,605
120867,493,483,545
120871,506,421,430
120876,523,494,438
120880,518,599,557
120884,498,578,606
120888,489,463,514
120892,506,420,414
120896,524,509,456
120900,515,599,577
120904,495,560,598
120908,492,445,487
120911,513,434,411
120915,526,539,483
120920,511,601,596
120924,492,522,585
120928,496,421,464
120932,517,449,414
120936,523,567,506
120940,506,598,602
120944,492,502,561
120948,499,421,441
120952,516,474,422
120956,518,584,535
120961,502,585,607
120965,496,477,532
120968,507,421,420
120972,525,501,440
120976,520,598,559
120980,501,567,601
120984,498,451,502
120988,516,427,411
120992,527,528,464
120996,516,601,586
121000,497,540,595
121005,499,435,478
121009,519,444,408
121013,526,560,492
121017,506,609,601
121021,489,521,574
121024,494,424,453
121028,515,460,415
121032,520,574,520
121036,502,592,604
121040,490,489,544
121044,502,419,428
121049,520,486,426
121053,518,592,544
121057,496,583,604
121061,491,468,515
121065,510,420,410
121069,524,508,446
121073,514,598,572
121077,492,555,603
121080,492,439,491
121084,512,428,409
121089,522,536,476
121093,514,605,593
121097,496,535,590
121101,497,429,470
121105,518,453,414
121109,526,567,508
121113,508,598,608
121117,491,500,562
121121,503,414,441
121125,524,472,423
121129,524,589,536
121134,503,591,609
121137,490,479,534
121141,502,418,420
121145,520,498,431
121149,516,599,557
121153,495,571,602
121157,487,457,503
121161,502,427,408
121165,522,525,457
121169,516,605,580
121174,497,549,597
121178,498,438,484
121182,518,441,413
121186,528,547,485
121190,512,601,595
121193,492,521,577
121197,497,422,454
121201,517,455,410
121205,520,569,513
121209,500,591,605
121213,482,489,552
121218,499,414,431
121222,522,478,425
121226,520,590,542
121230,501,583,608
121234,490,469,523
121238,502,418,415
121242,520,504,443
121246,518,599,566
121249,499,562,602
121253,494,449,497
121257,510,433,408
121262,522,538,470
121266,512,606,584
121270,492,536,585
121274,492,425,468
121278,512,438,406
121282,524,552,492
121286,508,595,599
121290,494,505,573
121294,500,413,448
121298,522,458,418
121303,525,574,525
121306,503,585,609
121310,490,479,540
121314,497,415,422
121318,517,488,428
121322,516,593,548
121326,499,571,603
121330,491,455,510
121334,507,415,408
121338,521,509,454
121342,515,596,578
121347,496,548,597
121351,492,437,483
121355,510,434,406
121359,520,543,478
121362,506,600,593
121366,487,522,578
121370,492,419,457
121374,515,448,411
121378,521,570,515
121382,502,599,605
121387,487,497,552
121391,496,416,431
121395,517,468,418
121399,515,578,534
121403,496,579,604
121407,488,470,528
121411,503,416,418
121415,521,500,437
121418,514,600,559
121422,491,566,601
121426,486,450,503
121431,502,428,409
121435,520,533,459
121439,510,608,579
121443,491,543,586
121447,493,431,469
121451,512,438,408
121455,520,551,489
121459,504,593,596
121463,489,503,568
121467,496,412,446
121472,519,457,414
121475,523,572,520
121479,503,587,606
121483,488,481,545
121487,501,409,427
121491,522,477,429
121495,519,583,547
121499,498,566,606
121503,490,453,517
121507,506,412,412
121511,522,500,448
121516,514,590,572
121520,494,547,602
121524,491,435,494
121528,509,426,407
121531,522,534,470
121535,510,594,584
121539,490,520,578
121543,491,416,461
121547,516,439,410
121551,527,556,505
121555,510,594,607
121560,495,501,564
121564,505,414,442
121568,523,465,423
121572,523,578,534
121576,503,585,614
121580,493,476,540
121584,507,416,428
121587,524,491,440
121591,517,588,565
121595,495,560,611
121600,490,445,510
121604,507,419,417
121608,523,519,465
121612,512,599,581
121616,489,542,589
121620,492,433,474
121624,513,437,408
121628,524,549,486
121632,508,605,592
121636,489,524,569
121640,495,425,453
121644,514,456,412
121648,515,572,505
121652,497,592,599
121656,487,485,555
121660,500,412,433
121664,524,474,427
121668,525,582,544
121672,501,572,606
121676,490,459,526
121680,509,410,422
121684,526,499,448
121689,519,594,568
121693,498,556,603
121697,493,442,492
121700,512,428,407
121704,526,531,469
121708,511,600,585
121712,490,536,584
121716,492,430,469
121720,514,446,412
121724,523,558,495
121729,505,601,595
121733,489,512,563
121737,499,420,440
121741,523,460,418
121745,528,578,528
121749,508,590,612
121753,494,484,546
121756,505,418,429
121760,521,491,440
121764,518,597,558
121768,497,576,604
121773,492,458,509
121777,510,419,409
121781,524,511,455
121785,511,596,572
121789,488,551,593
121793,490,439,483
121797,509,434,404
121801,520,535,474
121805,507,591,589
121809,489,516,575
121812,493,413,457
121817,515,438,410
121821,522,556,507
121825,503,590,601
121829,489,492,552
121833,500,414,432
121837,523,474,424
121841,524,589,543
121845,502,584,609
121849,492,468,531
121853,507,414,421
121858,524,498,439
121862,518,597,562
121866,495,561,604
121869,492,446,504
121873,510,429,416
121877,522,534,464
121881,512,606,579
121885,495,542,590
121889,496,431,469
121893,515,437,404
121897,524,544,489
121902,507,591,592
121906,493,513,561
121910,500,424,439
121914,522,456,413
121918,523,566,520
121922,505,585,610
121925,493,489,550
121929,504,420,434
121933,523,477,432
121937,520,580,552
121942,501,559,609
121946,493,433,522
121950,511,386,415
121954,527,470,449
121958,517,558,574
121962,496,518,606
121966,491,413,498
121970,510,407,415
121974,523,512,487
121978,510,576,598
121981,493,508,586
121986,498,409,464
121990,519,432,410
121994,524,547,505
121998,508,582,611
122002,492,485,562
122006,499,401,441
122010,517,453,428
122014,520,563,536
122018,501,573,607
122022,490,471,529
122027,501,421,412
122031,517,497,437
122035,516,591,560
122038,497,558,610
122042,490,439,514
122046,507,412,421
122050,519,513,470
122054,509,603,583
122058,491,550,602
122062,493,441,489
122066,516,446,414
122071,524,549,491
122075,509,600,601
122079,491,526,577
122083,497,434,455
122087,520,464,412
122091,521,575,513
122094,501,604,599
122098,487,504,546
122102,499,427,431
122106,522,484,425
122110,520,594,537
122115,497,592,602
122119,488,484,516
122123,504,442,417
122127,519,520,448
122131,512,603,566
122135,493,561,604
122139,493,452,500
122143,514,444,407
122147,523,544,469
122150,513,604,584
122155,494,537,588
122159,493,434,476
122163,512,451,411
122167,522,563,500
122171,504,601,610
122175,490,519,571
122179,498,439,440
122183,519,473,419
122187,525,573,528
122191,505,595,607
122195,492,500,537
122200,503,432,420
122204,521,497,428
122207,518,600,548
122211,498,582,604
122215,490,468,508
122219,506,441,403
122223,523,536,431
122227,513,612,558
122231,492,559,595
122235,491,450,485
122240,513,438,422
122244,524,537,492
122248,510,590,600
122252,493,527,578
122256,496,454,440
122260,517,474,401
122263,528,583,499
122267,505,608,593
122271,486,491,553
122275,501,420,438
122279,523,481,418
122284,520,578,527
122288,501,581,600
122292,493,483,512
122296,510,446,397
122300,528,518,446
122304,523,583,554
122308,501,546,600
122312,494,442,506
122316,512,460,374
122319,526,605,397
122323,515,660,560
122328,496,533,607
122332,497,408,492
122336,518,418,437
122340,524,544,473
122344,506,643,557
122348,492,557,525
122352,501,463,433
122356,522,473,412
122360,523,584,470
122364,505,571,637
122369,488,410,597
122373,500,335,472
122376,523,429,444
122380,520,559,562
122384,500,572,586
122388,491,470,488
122392,506,424,395
122396,520,504,490
122400,508,582,580
122404,491,508,609
122408,489,414,473
122413,510,412,396
122417,527,511,482
122421,510,557,658
122425,490,484,659
122429,495,401,487
122432,517,465,377
122436,524,589,554
122440,504,606,672
122444,488,469,610
122448,498,426,451
122452,520,556,411
122457,521,640,618
122461,501,541,686
122465,490,431,543
122469,501,397,456
122473,520,513,483
122477,513,619,572
122481,491,594,624
122485,487,533,502
122488,510,565,438
122492,527,609,509
122497,517,649,594
122501,494,564,513
122505,494,439,433
122509,510,471,463
122513,518,530,604
122517,506,555,670
122521,492,487,591
122525,498,466,433
122529,519,505,415
122533,521,606,530
122537,502,606,630
122542,487,494,565
122545,500,466,435
122549,521,557,421
122553,519,642,547
122557,498,566,628
122561,486,445,504
122565,504,505,380
122569,523,537,417
122573,516,555,595
122577,496,501,634
122582,493,480,462
122586,511,596,288
122590,517,698,454
122594,497,593,682
122598,479,457,672
122601,485,380,485
122605,510,398,445
122609,521,504,519
122613,507,592,537
122617,496,532,524
122621,505,397,464
122626,524,443,381
122630,520,669,495
122634,502,629,620
122638,486,478,558
122642,503,412,505
122646,526,448,472
122650,521,581,531
122654,495,746,490
122657,488,563,555
122661,507,312,500
122665,513,335,533
122670,500,445,623
122674,476,446,647
122678,477,423,428
122682,504,558,292
122686,511,778,410
122690,497,680,621
122694,474,420,648
122698,456,218,549
122702,463,359,400
122706,488,536,550
122711,487,598,649
122714,480,517,551
122718,486,528,346
122722,493,721,292
122726,494,655,577
122730,467,384,737
122734,439,240,613
122738,431,416,416
122742,465,768,354
122746,503,755,595
122750,496,460,686
122755,532,301,504
122759,544,557,298
122763,514,638,452
122767,503,532,629
122770,472,403,621
122774,463,152,547
122778,463,155,460
122782,506,448,459
122786,453,520,632
122790,462,410,589
122795,525,541,360
122799,569,554,441
122803,568,437,588
122807,513,408,630
122811,466,417,566
122815,465,425,440
122819,471,465,443
122823,511,461,599
122826,497,428,628
122830,474,352,522
122834,484,465,326
122839,507,688,396
122843,551,710,623
122847,534,639,612
122851,514,382,539
122855,500,314,372
122859,501,464,444
122863,488,600,593
122867,459,514,608
122871,506,384,433
122875,542,512,269
122880,513,514,534
122883,490,430,652
122887,479,384,604
122891,512,351,442
122895,479,471,403
122899,478,587,538
122903,403,710,520
122907,461,578,482
122911,536,484,437
122915,584,472,492
122919,543,544,551
122924,459,438,648
122928,413,380,510
122932,475,495,382
122936,549,527,535
122939,460,579,601
122943,494,539,614
122947,520,335,545
122951,510,326,424
122955,551,440,497
122959,510,529,600
122963,478,500,563
122968,455,488,422
122972,483,518,347
122976,491,539,525
122980,517,600,611
122984,494,508,553
122988,523,430,409
122992,554,522,405
122995,547,661,541
122999,504,592,662
123003,472,367,579
123008,452,346,388
123012,544,504,387
123016,576,563,595
123020,521,498,667
123024,494,404,513
123028,552,345,398
123032,555,466,469
123036,486,613,548
123040,466,531,589
123044,567,343,538
123048,591,431,387
123052,629,733,369
123056,556,708,577
123060,474,493,605
123064,489,325,501
123068,573,374,475
123072,577,542,581
123076,492,525,613
123080,465,607,461
123084,547,580,346
123088,596,445,431
123092,602,445,605
123097,517,509,594
123101,468,434,527
123105,542,372,409
123108,572,489,442
123112,549,731,514
123116,533,562,653
123120,495,296,541
123124,482,417,349
123128,520,677,408
123132,506,709,568
123137,531,530,603
123141,552,398,511
123145,542,337,468
123149,528,443,507
123153,543,712,557
123157,513,569,567
123161,525,309,440
123164,574,338,421
123167,557,633,411
123171,508,906,434
123175,458,563,564
123180,499,231,532
123184,510,249,517
123188,552,466,583
123192,577,573,552
123196,560,415,533
123200,542,362,395
123204,536,471,462
123208,471,596,581
123212,458,700,524
123216,515,513,436
123219,587,496,410
123223,525,518,528
123227,435,498,622
123231,426,520,555
123235,520,492,440
123239,551,536,403
123243,559,506,594
123247,577,497,619
123251,565,504,522
123255,507,494,382
123259,517,450,432
123264,525,432,600
123268,561,435,629
123272,540,382,497
123275,504,373,385
123278,525,512,435
123282,485,731,491
123286,477,708,588
123290,512,458,518
123294,500,390,418
123298,478,513,461
123302,519,613,587
123307,557,554,562
123311,564,491,458
123315,558,389,466
123319,498,428,545
123323,501,562,599
123327,508,550,523
123331,505,406,404
123334,512,475,402
123338,550,564,562
123342,487,535,673
123346,518,406,505
123351,523,392,341
123355,558,588,332
123359,548,616,566
123363,507,486,653
123367,477,412,481
123371,504,445,402
123375,537,565,449
123379,484,673,585
123383,430,535,618
123387,494,369,480
123390,588,381,404
123395,570,503,504
123399,494,633,562
123403,464,569,550
123407,448,396,460
123411,497,405,421
123415,539,519,520
123419,571,573,590
123423,531,468,567
123427,529,374,446
123431,520,489,409
123436,527,583,549
123440,545,575,576
123444,546,539,419
123447,521,416,405
123451,503,476,460
123455,505,638,556
123459,465,556,620
123463,494,455,468
123467,511,382,429
123471,509,461,489
123475,532,554,608
123480,519,482,555
123484,508,435,449
123488,528,439,378
123492,565,570,444
123496,554,564,621
123500,500,504,564
123503,483,402,441
123507,486,461,369
123511,493,522,534
123515,507,521,632
123520,514,448,547
123524,516,471,347
123528,579,514,437
123532,565,613,553
123536,489,525,623
123540,452,360,553
123544,507,361,398
123548,497,496,446
123552,493,569,581
123556,497,553,558
123559,500,480,440
123564,507,440,391
123568,523,544,469
123572,541,608,576
123576,541,515,543
123580,526,441,414
123584,539,481,397
123588,525,569,527
123592,468,600,582
123596,479,541,482
123600,522,414,451
123604,556,428,500
123609,541,561,586
123613,493,576,591
123616,457,451,510
123620,469,390,406
123624,468,512,424
123628,508,617,622
123632,496,552,601
123636,489,440,439
123640,554,423,379
123644,567,577,392
123649,540,691,522
123653,511,528,600
123657,468,369,456
123661,492,435,370
123665,525,694,415
123669,502,790,597
123672,516,484,644
123676,536,275,494
123680,533,326,431
123684,477,532,506
123688,458,582,619
123693,490,463,530
123697,523,385,418
123701,568,494,459
123705,552,594,542
123709,482,582,583
123713,469,516,472
123717,500,423,403
123721,519,574,392
123725,492,695,525
123728,467,556,615
123732,476,377,507
123737,547,384,412
123741,539,530,500
123745,485,666,551
123749,455,643,517
123753,500,435,467
123757,565,376,456
123761,577,502,558
123765,525,570,612
123769,486,508,528
123773,496,518,321
123778,517,702,336
123782,516,658,560
123785,482,509,688
123789,467,354,590
123793,491,419,374
123797,540,628,347
123801,521,636,566
123805,463,510,663
123809,472,385,526
123813,513,448,362
123817,530,585,461
123822,521,670,564
123826,490,596,580
123830,475,461,491
123834,520,510,390
123838,567,694,485
123841,522,659,557
123845,459,593,493
123849,492,604,384
123853,515,706,365
123857,530,954,334
123862,526,746,598
123866,504,276,687
123870,494,134,498
123874,505,322,424
123878,518,523,606
123882,483,584,671
123886,484,449,570
123890,467,333,462
123894,509,429,448
123897,461,588,540
123901,497,593,593
123906,510,481,493
123910,500,457,430
123914,549,563,482
123918,564,652,560
123922,525,696,511
123926,509,532,435
123930,517,442,431
123934,525,587,484
123938,506,581,585
123942,465,403,603
123947,469,333,434
123951,507,550,303
123954,513,664,534
123958,492,589,616
123962,500,574,509
123966,530,428,467
123970,527,440,467
123974,505,668,536
123978,466,753,564
123982,453,427,571
123986,508,287,463
123991,540,417,502
123995,533,546,588
123999,485,541,560
124003,428,432,454
124007,482,395,405
124010,534,495,484
124014,524,611,562
124018,506,609,534
124022,511,573,412
124026,558,468,450
124030,563,527,548
124035,501,529,649
124039,436,451,548
124043,469,556,321
124047,534,628,408
124051,532,561,627
124055,511,478,667
124059,501,408,505
124063,483,439,419
124066,488,505,468
124070,469,558,554
124075,474,512,598
124079,483,405,503
124083,508,463,360
124087,540,661,373
124091,533,687,562
124095,486,516,618
124099,469,373,471
124103,499,449,365
124107,522,602,433
124111,509,603,632
124115,473,530,578
124120,497,409,473
124123,505,393,432
124127,487,606,495
124131,469,694,609
124135,432,463,613
124139,468,323,442
124143,521,401,450
124147,573,526,563
124151,538,548,603
124155,505,486,494
124160,515,503,352
124164,546,566,423
124168,519,562,577
124172,487,501,590
124176,490,420,474
124179,494,420,431
124183,514,545,487
124187,498,689,548
124191,467,585,585
124195,502,405,517
124199,511,402,410
124204,490,539,507
124208,492,612,609
124212,497,508,572
124216,507,377,443
124220,519,418,404
124224,539,576,533
124228,505,620,602
124232,470,494,532
124235,485,410,417
124239,496,452,442
124243,535,554,533
124248,509,577,562
124252,464,533,455
124256,480,452,416
124260,532,476,502
124264,532,572,589
124268,475,576,584
124272,460,428,499
124276,502,404,413
124280,538,514,497
124284,520,599,572
124289,491,583,530
124292,487,466,448
124295,494,435,453
124299,512,535,551
124303,500,570,604
124307,469,512,479
124311,504,460,407
124315,538,483,453
124319,544,560,577
124323,496,555,608
124327,444,454,465
124332,446,469,369
124336,489,542,460
124340,551,594,586
124344,531,556,613
124348,495,470,484
124351,507,480,402
124355,498,538,479
124359,477,591,564
124363,471,569,586
124367,485,440,477
124371,538,430,443
124376,554,552,477
124380,530,595,597
124384,488,489,569
124388,451,422,429
124392,482,472,407
124396,519,595,501
124400,528,627,609
124404,489,536,526
124407,488,492,388
124411,533,526,445
124416,533,615,568
124420,499,532,620
124424,462,416,511
124428,480,423,394
124432,508,522,455
124436,523,630,532
124440,523,593,589
124444,514,493,489
124448,534,412,462
124452,541,520,493
124456,504,592,594
124461,479,500,592
124464,499,458,458
124468,502,486,429
124472,477,580,522
124476,484,633,589
124480,475,507,550
124484,454,430,428
124488,490,481,393
124492,530,584,528
124496,491,584,612
124500,467,473,550
124505,490,426,406
124509,543,565,391
124513,553,743,518
124517,485,632,617
124520,504,407,531
124524,530,349,442
124528,523,507,469
124532,515,680,550
124536,487,563,593
124540,492,383,501
124545,529,403,401
124549,539,570,464
124553,498,625,589
124557,476,554,575
124561,480,475,447
124565,496,525,405
124569,515,595,509
124573,517,563,610
124576,507,468,530
124580,506,453,406
124584,502,495,466
124589,504,568,597
124593,473,600,614
124597,461,523,508
124601,495,417,440
124605,523,478,467
124609,524,567,575
124613,492,577,574
124617,494,485,466
124621,519,424,418
124625,549,518,495
124630,511,599,584
124633,467,585,520
124637,490,527,451
124641,518,539,397
124645,523,589,528
124649,484,581,631
124653,467,485,569
124657,491,383,451
124661,533,491,417
124665,544,603,548
124669,492,545,640
124674,478,416,544
124678,509,393,397
124682,524,565,395
124686,489,711,546
124689,481,616,584
124693,495,491,500
124697,530,360,471
124701,517,434,496
124705,496,524,588
124709,471,493,567
124713,474,410,474
124718,503,425,413
124722,554,568,467
124726,539,659,571
124730,500,541,552
124734,475,473,435
124738,471,510,431
124742,492,558,551
124745,461,565,645
124749,481,446,595
124753,540,377,446
124758,557,482,427
124762,530,606,553
124766,493,651,529
124770,471,536,512
124774,495,408,448
124778,532,463,479
124782,530,551,586
124786,516,546,597
124790,503,468,469
124794,509,448,403
124798,494,520,487
124802,468,583,584
124806,464,524,581
124810,488,429,457
124814,505,455,381
124818,519,633,459
124822,502,705,599
124826,442,512,587
124830,483,348,473
124834,545,398,434
124838,550,583,511
124843,505,672,568
124847,488,502,566
124851,488,367,466
124855,526,432,427
124858,522,593,512
124862,481,606,564
124866,474,463,521
124870,523,409,443
124874,542,505,471
124878,535,591,572
124882,496,601,566
124887,496,491,497
124891,502,410,431
124895,494,516,465
124899,500,613,551
124903,472,546,595
124907,481,415,492
124911,513,423,411
124914,494,541,501
124918,471,593,576
124922,480,490,573
124926,512,389,455
124931,543,471,427
124935,545,599,545
124939,504,564,617
124943,488,446,502
124947,506,425,409
124951,532,522,441
124955,523,646,539
124959,495,592,612
124963,464,472,486
124967,483,528,341
124971,543,588,476
124975,526,561,653
124979,507,462,633
124983,486,373,464
124987,486,429,395
124991,521,562,500
124995,533,618,600
124999,513,531,588
125003,499,415,462
125007,506,473,388
125011,509,626,477
125016,496,592,623
125020,498,435,569
125024,533,368,433
125027,530,449,439
125031,499,616,528
125035,484,633,595
125039,496,543,494
125043,520,438,420
125047,510,473,468
125051,514,580,591
125056,504,546,616
125060,504,441,515
125064,522,423,427
125068,523,530,504
125072,487,617,603
125076,444,562,564
125080,488,528,372
125083,545,581,378
125087,550,579,565
125091,516,562,631
125095,497,450,572
125100,487,374,439
125104,503,493,402
125108,523,615,536
125112,501,577,624
125116,493,441,539
125120,491,377,443
125124,499,473,465
125128,509,589,571
125132,496,595,575
125136,478,497,496
125139,496,431,436
125144,528,517,494
125148,540,618,609
125152,530,531,586
125156,517,457,431
125160,491,455,414
125164,478,522,515
125168,487,573,581
125172,502,529,534
125176,526,449,424
125180,534,508,429
125185,496,573,560
125189,482,564,639
125193,498,455,561
125196,518,420,372
125200,529,504,399
125204,528,599,563
125208,516,553,624
125212,494,429,543
125216,493,406,417
125220,509,554,439
125224,483,670,565
125229,479,600,615
125233,487,430,537
125237,528,399,444
125241,554,511,463
125245,533,607,541
125249,495,547,575
125252,476,405,487
125256,493,443,420
125260,536,591,452
125264,523,656,553
125268,481,514,601
125273,488,381,494
125277,510,435,434
125281,526,574,515
125285,501,591,581
125289,475,479,530
125293,499,402,460
125297,538,491,432
125301,542,623,544
125305,513,577,624
125308,482,427,541
125313,496,421,395
125317,532,552,427
125321,540,640,567
125325,503,594,580
125329,490,441,494
125333,491,430,426
125337,495,543,477
125341,484,648,583
125345,508,517,625
125349,527,364,497
125353,527,409,405
125358,525,575,485
125362,509,597,593
125365,479,475,572
125369,481,406,446
125373,504,477,430
125377,541,590,535
125381,541,597,597
125385,499,494,523
125389,507,419,436
125393,534,478,460
125398,528,599,552
125402,504,600,586
125406,483,486,493
125410,506,522,357
125414,520,530,500
125418,503,524,614
125421,454,455,593
125425,492,377,496
125429,533,438,412
125433,539,613,472
125437,492,641,611
125442,471,500,574
125446,508,420,432
125450,535,499,392
125454,515,610,508
125458,492,558,643
125462,492,428,574
125466,501,385,435
125470,517,488,412
125474,537,611,515
125477,525,610,573
125481,485,468,542
125486,495,385,438
125490,536,494,476
125494,533,590,584
125498,486,541,609
125502,477,433,494
125506,519,414,374
125510,544,513,462
125514,534,583,604
125518,483,531,571
125522,475,437,478
125527,530,483,423
125531,544,636,492
125534,513,643,608
125538,501,520,551
125542,509,394,463
125546,520,445,425
125550,508,570,539
125554,493,582,618
125558,501,466,507
125562,523,403,419
125566,510,470,466
125571,494,598,559
125575,503,580,601
125579,523,478,505
125583,530,462,408
125587,520,538,474
125590,503,581,602
125594,503,506,587
125598,509,403,458
125602,533,454,405
125606,546,598,465
125611,509,660,557
125615,461,528,592
125619,466,393,459
125623,511,441,418
125627,526,574,523
125631,505,604,602
125635,502,508,549
125639,510,394,462
125643,492,459,432
125646,496,577,542
125650,515,549,651
125655,514,438,549
125659,525,410,414
125663,545,518,427
125667,529,616,558
125671,497,552,576
125675,499,449,484
125679,526,434,404
125683,513,526,472
125687,465,620,581
125691,469,540,597
125696,493,427,471
125700,530,431,413
125703,529,543,504
125707,477,597,589
125711,470,510,550
125715,490,440,448
125719,550,474,424
125723,563,608,500
125727,529,607,614
125731,485,447,569
125735,471,416,426
125740,522,521,448
125744,553,585,584
125748,507,563,601
125752,478,433,539
125756,486,373,439
125759,511,480,463
125763,543,570,581
125767,520,539,568
125771,502,454,466
125775,475,464,415
125779,513,525,504
125784,504,553,612
125788,482,486,568
125792,505,414,440
125796,525,461,417
125800,508,620,478
125804,507,627,611
125808,510,465,585
125812,502,367,457
125815,538,460,420
125819,546,630,559
125824,519,607,626
125828,500,449,538
125832,508,379,416
125836,520,478,423
125840,513,634,525
125844,485,620,551
125848,485,439,502
125852,508,386,446
125856,514,491,481
125860,475,583,604
125864,449,537,591
125869,480,432,452
125872,522,449,384
125876,546,552,504
125880,526,590,616
125884,486,530,563
125888,478,458,448
125892,534,481,432
125896,558,585,532
125900,537,580,615
125904,499,454,544
125908,502,412,421
125913,521,547,392
125917,508,644,538
125921,485,545,627
125925,480,400,498
125928,501,365,426
125932,544,482,476
125936,534,601,579
125940,489,546,611
125944,496,425,479
125948,532,453,374
125953,548,582,463
125957,514,623,594
125961,465,552,568
125965,465,441,435
125969,503,450,427
125973,532,524,526
125977,521,560,609
125981,488,465,572
125984,489,373,441
125988,532,452,410
125992,536,603,519
125997,516,621,583
126001,492,474,541
126005,502,397,439
126009,525,487,454
126013,511,631,547
126017,497,605,589
126021,524,452,527
126025,535,405,433
126029,544,511,474
126033,511,568,597
126038,487,514,580
126041,492,435,463
126045,523,437,431
126049,536,535,485
126053,524,601,600
126057,499,503,596
126061,494,403,447
126065,511,442,426
126069,514,590,509
126073,482,643,590
126077,436,535,557
126082,421,447,431
126086,495,506,394
126090,525,566,556
126094,517,563,621
126097,489,466,527
126101,509,374,451
126105,553,454,466
126109,537,574,574
126113,514,572,595
126117,486,469,497
126121,502,436,413
126126,537,564,480
126130,524,604,581
126134,501,512,530
126138,502,416,457
126142,510,461,422
126146,529,564,530
126150,518,591,629
126153,495,498,567
126157,492,394,464
126161,516,444,425
126166,516,574,510
126170,503,602,584
126174,485,480,534
126178,493,394,417
126182,490,510,408
126186,491,615,570
126190,503,573,614
126194,512,420,535
126198,537,411,439
126202,550,525,464
126206,507,608,600
126210,503,553,605
126214,511,477,481
126218,529,443,399
126222,515,534,462
126226,503,572,611
126230,494,478,599
126234,503,393,455
126238,518,472,402
126242,497,603,490
126246,500,622,593
126251,489,501,580
126255,478,416,423
126259,488,509,399
126263,536,620,534
126266,528,642,599
126270,502,476,558
126274,522,379,444
126278,526,470,442
126282,506,612,550
126286,471,590,576
126290,486,481,502
126295,522,456,378
126299,544,506,479
126303,517,555,622
126307,501,479,609
126311,494,424,462
126315,499,480,406
126319,496,536,539
126322,487,551,612
126326,477,474,548
126330,509,402,453
126334,525,461,432
126339,507,608,510
126343,486,622,620
126347,502,513,547
126351,515,420,431
126355,527,482,443
126359,532,636,532
126363,520,611,615
126367,503,483,503
126371,491,411,437
126375,522,523,479
126379,518,589,575
126383,487,558,579
126387,478,450,466
126391,489,436,380
126395,510,535,490
126399,504,542,663
126403,463,447,654
126407,490,359,510
126411,536,403,401
126415,528,540,475
126419,506,583,625
126424,492,490,574
126428,487,451,411
126432,503,528,379
126435,519,650,512
126439,503,613,605
126443,500,477,541
126447,496,393,438
126451,531,465,440
126455,534,590,553
126459,499,589,576
126464,498,553,409
126468,526,550,387
126472,528,521,530
126476,507,534,620
126480,472,480,576
126484,477,441,456
126488,508,434,437
126491,532,525,523
126495,507,530,630
126499,449,437,596
126503,477,362,470
126508,526,437,432
126512,520,589,521
126516,497,643,578
126520,495,574,521
126524,504,472,436
126528,521,459,427
126532,530,527,544
126536,517,532,596
126540,504,444,534
126544,520,448,392
126547,520,547,432
126552,489,589,590
126556,475,542,623
126560,489,463,459
126564,514,485,353
126568,529,520,529
126572,511,586,606
126576,490,560,564
126580,489,476,454
126584,544,418,435
126588,533,538,469
126593,505,636,570
126597,480,542,555
126601,507,394,446
126604,536,449,407
126608,535,566,521
126612,516,516,644
126616,486,427,555
126620,483,380,454
126624,508,436,440
126628,510,597,533
126632,501,567,628
126637,517,451,525
126641,527,458,387
126645,532,643,408
126649,512,705,565
126653,484,519,662
126657,481,326,539
126660,516,340,380
126664,524,504,461
126668,507,723,501
126672,493,705,563
126676,502,415,535
126681,511,293,502
126685,499,414,542
126689,496,625,531
126693,501,710,447
126697,515,500,450
126701,531,409,474
126705,516,531,506
126709,498,700,515
126713,487,636,540
126716,514,335,535
126721,536,296,494
126725,507,430,573
126729,491,479,622
126733,493,405,528
126737,506,424,407
126741,499,487,490
126745,495,545,614
126749,484,534,587
126753,481,457,511
126757,490,438,416
126761,520,505,488
126766,516,616,586
126770,505,532,568
126773,496,467,381
126777,483,515,395
126781,485,529,558
126785,513,524,653
126789,518,479,551
126793,508,471,433
126797,527,510,396
126801,517,648,502
126806,498,617,573
126810,476,462,549
126814,498,321,498
126818,531,406,504
126822,533,529,605
126826,518,530,616
126829,504,448,473
126833,509,411,386
126837,502,501,470
126841,483,604,566
126845,463,635,541
126850,478,422,482
126854,536,341,439
126858,538,471,530
126862,485,585,582
126866,452,675,446
126870,511,543,422
126874,564,414,492
126878,557,467,598
126882,516,492,641
126885,494,441,536
126889,517,438,379
126894,527,535,407
126898,508,622,586
126902,485,560,636
126906,490,390,529
126910,520,368,403
126914,514,475,468
126918,498,566,581
126922,496,545,594
126926,493,478,426
126930,476,523,325
126935,512,552,486
126939,525,544,655
126942,492,495,592
126946,509,448,441
126950,510,498,377
126954,511,614,501
126958,503,564,624
126962,490,458,550
126966,518,409,436
126970,545,572,376
126974,534,680,529
126979,503,526,656
126983,480,387,526
126987,511,443,372
126991,528,530,475
126995,488,566,589
126998,446,571,560
127002,491,506,469
127006,536,373,448
127010,523,422,509
127014,491,535,605
127019,479,527,554
127023,497,427,469
127027,530,506,345
127031,548,677,458
127035,536,636,637
127039,477,550,576
127043,485,385,459
127047,506,382,418
127051,515,542,528
127054,505,585,639
127058,504,470,551
127063,515,410,447
127067,526,542,420
127071,508,595,557
127075,508,544,616
127079,513,429,506
127083,529,366,406
127087,536,471,463
127091,511,568,578
127095,469,614,528
127099,459,624,360
127104,488,500,396
127108,529,518,524
127111,518,545,663
127115,491,433,639
127119,499,369,525
127123,517,402,448
127127,516,513,499
127131,516,561,577
127135,520,480,559
127139,521,417,436
127143,512,487,401
127148,518,660,478
127152,517,687,550
127156,503,498,550
127160,516,377,470
127164,529,529,402
127167,507,779,428
127171,450,654,627
127175,465,364,602
127179,508,286,467
127183,550,459,444
127187,531,613,575
127192,477,649,519
127196,490,501,515
127200,524,332,489
127204,537,409,548
127208,503,495,584
127212,494,455,561
127216,516,399,441
127220,537,487,390
127223,522,584,555
127227,482,576,613
127232,435,468,534
127236,488,424,392
127240,553,506,404
127244,553,610,541
127248,508,659,537
127252,474,581,501
127256,460,371,473
127260,495,406,489
127264,531,533,578
127268,538,546,572
127272,533,579,412
127277,537,498,429
127280,537,447,520
127284,496,487,591
127288,435,483,583
127292,440,406,492
127296,533,409,422
127300,568,536,519
127304,542,578,603
127308,512,486,549
127312,506,430,403
127316,500,529,387
127321,421,575,572
127325,443,564,625
127329,510,494,516
127333,547,433,402
127336,558,565,397
127340,538,614,574
127344,514,549,650
127348,474,420,523
127352,429,393,429
127356,484,505,460
127361,553,619,535
127365,532,573,572
127369,517,418,507
127373,526,398,418
127377,529,600,440
127381,499,690,599
127385,465,502,624
127389,495,369,469
127392,527,412,397
127396,535,539,518
127400,495,612,590
127405,491,522,519
127409,482,430,422
127413,480,426,460
127417,502,533,550
127421,517,585,599
127425,520,539,497
127429,534,484,400
127433,537,477,475
127437,494,537,608
127441,469,538,594
127446,497,470,461
127449,529,466,373
127453,537,563,478
127457,515,641,580
127461,491,521,581
127465,502,497,394
127469,502,485,421
127473,530,518,533
127477,522,573,610
127481,491,472,560
127485,474,376,436
127490,493,425,413
127494,519,544,528
127498,518,622,614
127502,514,519,566
127505,515,410,444
127509,539,529,410
127513,513,735,458
127517,481,594,623
127521,460,398,540
127525,490,378,412
127529,527,475,454
127534,551,604,565
127538,527,544,600
127542,505,410,500
127546,509,407,429
127550,513,587,461
127554,509,760,503
127558,498,581,565
127561,512,380,481
127565,530,385,432
127569,519,531,500
127574,475,654,572
127578,456,539,581
127582,485,415,476
127586,491,466,450
127590,511,535,542
127594,504,561,583
127598,502,470,534
127602,491,431,415
127606,528,536,416
127610,541,572,575
127614,504,539,617
127618,506,432,525
127622,494,411,377
127626,511,542,408
127630,522,595,583
127634,482,524,619
127638,495,460,447
127642,527,687,268
127646,556,661,529
127650,530,496,680
127654,475,379,631
127659,489,311,478
127663,508,411,405
127667,515,603,466
127671,496,651,567
127674,488,506,559
127678,493,379,435
127682,526,462,440
127686,527,582,571
127690,511,561,614
127694,498,440,504
127698,504,391,428
127703,538,471,467
127707,521,587,548
127711,500,580,575
127715,501,453,514
127719,500,443,386
127723,559,584,449
127727,548,606,610
127730,514,519,578
127734,502,430,463
127738,515,448,402
127742,511,580,481
127747,483,585,622
127751,450,499,567
127755,491,440,446
127759,549,485,419
127763,537,567,548
127767,498,560,590
127771,474,469,512
127775,496,413,422
127779,522,479,443
127783,548,598,534
127787,529,590,589
127791,499,455,502
127795,489,407,380
127799,512,507,461
127803,516,600,603
127807,498,554,574
127811,500,439,465
127815,538,414,410
127819,540,548,481
127823,496,651,587
127827,463,578,551
127832,478,441,450
127836,534,420,431
127840,542,523,527
127843,518,566,622
127847,485,500,564
127851,504,453,422
127855,506,522,401
127859,483,626,500
127863,465,555,630
127867,484,431,557
127872,540,385,423
127876,567,494,445
127880,521,596,591
127884,484,597,572
127888,466,515,443
127892,495,470,382
127896,545,580,427
127899,543,584,630
127903,506,461,617
127907,504,372,453
127911,511,432,394
127916,504,550,518
127920,499,623,609
127924,482,500,572
127928,502,387,453
127932,515,458,415
127936,513,646,504
127940,465,653,621
127944,479,467,552
127948,531,355,415
127952,550,433,446
127955,532,573,558
127960,509,613,590
127964,489,480,513
127968,483,409,405
127972,486,504,431
127976,514,612,559
127980,503,522,627
127984,498,399,514
127988,521,426,422
127992,527,581,476
127996,508,629,572
128001,465,515,563
128005,488,446,446
128009,529,452,407
128012,517,546,519
128016,512,574,583
128020,506,479,561
128024,511,375,464
128028,527,439,434
128032,499,575,540
128036,471,584,605
128040,491,475,522
128045,499,437,400
128049,520,535,431
128053,521,607,561
128057,503,534,614
128061,501,402,492
128065,503,429,370
128068,520,572,455
128072,505,614,600
128076,480,501,616
128080,481,379,476
128084,526,430,390
128089,544,564,487
128093,513,625,572
128097,477,525,561
128101,500,406,451
128105,525,442,434
128109,533,638,505
128113,503,633,615
128117,507,434,563
128121,513,343,444
128124,493,442,453
128129,486,606,529
128133,486,586,590
128137,499,450,502
128141,520,444,368
128145,524,539,433
128149,521,600,593
128153,504,545,639
128157,488,426,517
128161,519,407,442
128165,543,532,477
128169,529,612,587
128174,491,536,568
128178,485,442,441
128181,511,440,403
128185,530,525,520
128189,512,562,603
128193,469,501,529
128197,455,453,417
128201,496,517,403
128205,504,581,564
128209,507,580,620
128214,507,478,533
128218,520,435,408
128222,546,505,457
128226,528,586,565
128230,489,565,592
128234,459,447,480
128237,482,463,374
128241,534,550,462
128245,540,572,626
128249,510,502,641
128253,504,435,479
128258,510,452,378
128262,512,542,489
128266,516,586,595
128270,516,503,581
128274,511,402,464
128278,513,436,428
128282,501,564,500
128286,466,615,579
128290,473,529,519
128293,514,437,417
128297,537,484,417
128302,534,610,543
128306,463,608,579
128310,463,477,535
128314,506,392,451
128318,535,482,486
128322,528,583,593
128326,504,565,596
128330,495,474,437
128334,499,427,403
128338,528,496,490
128343,519,573,592
128347,509,525,578
128350,523,409,465
128354,530,443,434
128358,507,556,524
128362,453,605,592
128366,473,539,529
128370,512,455,438
128374,545,461,446
128378,545,543,566
128382,506,561,635
128387,441,487,509
128391,438,445,376
128395,521,499,414
128399,549,635,547
128403,526,600,647
128406,507,441,529
128410,525,409,418
128414,520,501,468
128418,482,579,596
128422,487,520,627
128427,509,423,483
128431,522,439,374
128435,521,579,479
128439,493,653,563
128443,475,561,571
128447,498,432,481
128451,528,417,451
128455,529,525,524
128459,489,594,589
128462,496,503,533
128466,509,377,441
128471,533,438,437
128475,506,617,494
128479,488,649,610
128483,497,496,542
128487,502,389,440
128491,534,451,483
128495,529,572,576
128499,495,546,575
128503,506,413,510
128507,519,388,441
128512,537,524,455
128516,519,624,565
128519,500,567,567
128522,484,430,481
128526,491,443,415
128530,524,605,433
128534,513,625,600
128538,479,511,576
128542,488,403,456
128546,522,410,457
128550,519,527,563
128555,500,567,617
128559,488,488,519
128563,486,424,428
128567,488,486,431
128571,495,584,557
128575,492,558,615
128578,477,483,479
128582,503,492,358
128586,528,526,451
128590,546,563,585
128594,532,541,600
128599,516,443,468
128603,521,408,423
128607,542,520,529
128611,511,632,574
128615,480,551,571
128619,489,397,476
128623,511,449,389
128627,526,602,505
128630,517,635,620
128633,486,513,561
128637,488,379,471
128642,519,416,453
128646,534,560,528
128650,510,581,584
128654,490,462,513
128658,491,423,425
128662,507,538,431
128666,503,679,532
128670,476,587,598
128674,493,410,523
128678,512,395,378
128683,516,527,457
128687,514,585,615
128690,504,513,604
128694,479,410,492
128698,498,420,416
128702,539,556,496
128706,511,617,599
128710,515,555,558
128714,524,460,454
128718,525,478,414
128722,506,581,551
128727,489,587,625
128731,510,483,541
128735,522,419,407
128739,532,478,426
128743,519,591,552
128746,468,590,586
128750,472,507,483
128754,520,420,431
128758,537,516,445
128762,519,631,576
128766,497,548,630
128771,500,414,497
128775,520,402,397
128779,518,513,458
128783,504,605,568
128787,505,567,554
128791,511,457,445
128795,512,437,419
128799,510,558,545
128802,514,630,603
128806,497,513,590
128811,494,378,474
128815,517,416,426
128819,531,549,527
128823,508,579,568
128827,492,498,533
128831,499,439,433
128835,492,491,441
128839,496,589,552
128843,490,570,623
128847,469,426,529
128851,500,381,420
128856,529,496,450
128859,543,625,567
128863,522,579,567
128867,485,438,440
128871,498,457,389
128875,533,590,472
128879,513,596,616
128883,508,498,591
128887,517,384,483
128891,500,390,443
128896,511,512,528
128900,511,559,616
128904,497,485,554
128908,502,420,433
128912,481,481,419
128915,493,607,511
128919,505,578,603
128923,518,475,519
128927,531,415,408
128931,518,488,411
128935,500,594,545
128940,463,566,627
128944,494,454,515
128948,538,420,414
128952,536,502,473
128956,524,625,561
128960,495,582,535
128964,476,409,483
128968,499,398,425
128971,540,560,518
128975,528,625,612
128979,500,518,572
128984,517,379,464
128988,517,409,434
128992,499,561,540
128996,492,583,608
129000,497,487,499
129004,522,433,429
129008,532,499,455
129012,488,594,543
129016,456,583,576
129020,489,461,520
129025,512,401,443
129028,543,498,475
129032,538,603,565
129036,497,548,609
129040,478,427,490
129044,507,439,372
129048,538,585,444
129052,515,636,584
129056,502,526,598
129060,509,394,484
129064,513,400,425
129069,515,519,522
129073,488,575,601
129077,475,517,526
129081,478,441,458
129084,510,466,417
129088,515,578,520
129092,508,602,576
129096,496,479,531
129100,512,407,437
129104,506,493,440
129108,500,595,572
129113,494,542,636
129117,509,437,511
129121,531,431,400
129125,535,524,481
129129,511,618,576
129133,483,585,534
129137,478,449,466
129140,512,426,413
129143,525,543,504
129147,507,582,601
129152,492,487,572
129156,477,394,453
129160,507,441,438
129164,531,590,525
129168,522,599,604
129172,515,466,555
129176,515,390,426
129180,518,486,405
129184,528,629,525
129188,504,596,602
129192,479,465,509
129197,492,401,456
129200,523,485,466
129204,501,593,587
129208,466,544,627
129212,470,429,511
129216,530,454,403
129220,550,579,442
129224,515,616,598
129228,478,511,587
129232,483,400,459
129236,541,437,410
129241,544,554,511
129245,529,603,586
129249,503,529,561
129253,499,423,473
129256,513,449,402
129260,518,572,494
129264,502,591,587
129268,481,469,546
129272,492,402,450
129276,498,498,453
129281,507,619,539
129285,488,592,609
129289,481,447,511
129293,480,416,416
129297,513,558,466
129301,534,603,612
129305,512,517,622
129309,508,402,481
129312,516,426,378
129316,514,539,465
129320,489,574,581
129325,488,506,582
129329,494,420,472
129333,514,447,421
129337,507,576,511
129341,504,583,615
129345,504,464,542
129349,522,383,426
129353,527,477,411
129357,514,604,558
129361,454,591,625
129366,476,460,531
129369,513,414,390
129373,532,534,420
129377,505,637,528
129381,456,561,589
129385,485,400,506
129389,508,384,413
129393,523,505,469
129397,512,592,579
129401,497,555,561
129405,502,458,463
129410,533,437,404
129414,528,537,486
129418,521,593,609
129422,508,487,594
129425,494,394,452
129429,504,475,408
129433,528,617,541
129437,522,603,613
129441,494,487,536
129445,480,426,414
129449,504,509,414
129454,522,596,559
129458,516,576,615
129462,498,442,534
129466,521,393,413
129470,539,499,450
129474,512,627,551
129478,485,557,635
129481,484,429,510
129485,508,428,441
129489,502,549,480
129494,513,617,574
129498,486,551,534
129502,441,445,457
129506,483,429,435
129510,529,529,524
129514,531,574,616
129518,508,510,552
129522,459,425,407
129526,506,475,403
129530,557,578,543
129534,520,576,639
129538,499,467,527
129542,497,414,390
129546,510,499,426
129550,529,601,598
129554,522,581,605
129558,502,472,494
129562,494,427,417
129566,514,513,487
129570,531,602,579
129574,503,548,598
129579,479,429,487
129583,491,420,410
129587,505,545,471
129591,520,617,570
129594,493,531,571
129598,493,441,431
129602,540,466,429
129606,532,571,530
129610,509,590,620
129614,483,465,554
129618,495,405,404
129623,536,504,419
129627,532,599,564
129631,487,561,615
129635,486,450,487
129639,498,408,411
129643,518,511,443
129647,534,613,591
129650,502,557,632
129654,452,415,515
129658,475,431,369
129662,526,577,441
129667,524,607,613
129671,508,513,613
129675,501,412,478
129679,523,427,434
129683,546,539,484
129687,527,589,590
129691,495,515,545
129695,495,419,438
129699,525,464,415
129703,523,593,544
129707,496,610,634
129711,454,471,555
129715,487,389,402
129719,538,483,405
129723,524,608,504
129727,482,617,589
129731,477,468,524
129735,520,385,416
129739,554,512,383
129743,527,632,601
129747,516,547,661
129752,501,431,512
129756,516,444,408
129760,523,537,487
129763,496,623,587
129767,486,549,590
129771,493,403,475
129775,516,474,348
129779,523,595,502
129783,522,581,649
129787,499,448,589
129792,491,355,464
129796,517,443,416
129800,504,582,532
129804,483,581,629
129808,489,461,540
129812,525,403,429
129816,539,505,438
129819,526,614,542
