397551,522,469,414
397555,361,557,485
397559,427,575,587
397563,617,502,573
397566,655,445,467
397571,482,493,427
397575,360,575,513
397579,471,565,596
397583,649,475,548
397587,628,434,443
397591,436,501,433
397595,358,575,535
397599,511,542,598
397603,663,455,527
397607,585,443,431
397612,396,525,454
397616,374,579,557
397620,552,524,588
397623,663,441,497
397627,542,453,417
397631,377,544,468
397635,410,583,572
397639,595,517,574
397643,661,441,473
397647,507,475,418
397651,365,564,497
397656,440,574,587
397660,617,495,563
397664,634,445,453
397668,462,499,426
397672,362,578,525
397676,481,557,604
397679,643,467,543
397683,603,439,436
397687,424,512,442
397691,374,582,550
397696,530,540,599
397700,659,452,515
397704,568,451,425
397708,393,534,463
397712,387,574,564
397716,565,510,580
397720,655,437,483
397724,525,462,414
397728,370,550,473
397732,420,573,569
397735,601,493,566
397740,642,430,461
397744,481,478,418
397748,361,565,503
397752,460,566,589
397756,632,486,550
397760,620,446,444
397764,440,506,428
397768,360,576,529
397772,501,549,599
397776,652,461,531
397780,594,441,431
397785,410,519,446
397789,375,574,557
397792,544,525,593
397796,663,444,508
397800,550,455,425
397804,378,543,470
397808,400,577,575
397812,585,508,580
397816,657,435,477
397820,507,466,417
397825,360,558,490
397829,436,574,588
397833,620,490,565
397837,639,433,457
397841,463,483,421
397844,358,570,514
397847,480,559,589
397851,647,478,540
397855,612,446,440
397859,426,512,438
397863,363,577,543
397868,520,539,599
397872,657,450,521
397876,570,448,429
397880,392,529,458
397884,381,577,565
397888,564,518,591
397892,665,440,498
397896,531,464,421
397899,363,552,479
397902,406,576,582
397906,602,499,576
397911,656,430,466
397915,484,472,415
397919,344,556,499
397923,446,556,588
397927,637,475,550
397931,634,434,449
397935,440,496,426
397939,344,577,530
397943,491,556,600
397947,661,470,535
397952,598,443,432
397955,399,509,445
397958,357,568,554
397962,536,526,597
397966,669,447,513
397970,557,452,423
397974,370,537,464
397978,385,577,573
397982,580,514,589
397986,665,436,488
397990,513,461,423
397995,355,548,494
397999,424,566,593
398003,618,494,572
398007,645,436,461
398010,463,480,422
398013,345,561,512
398017,460,553,590
398021,640,475,538
398025,614,444,436
398029,424,504,430
398033,355,574,536
398038,506,544,597
398042,652,461,520
398046,577,450,423
398050,397,527,453
398054,379,581,560
398058,555,531,586
398062,662,454,497
398065,538,466,421
398068,371,548,473
398072,403,581,576
398076,590,515,576
398081,648,447,465
398085,489,481,411
398089,355,565,487
398093,440,571,584
398097,619,490,560
398101,625,442,453
398105,450,497,428
398109,352,577,519
398113,480,564,593
398117,640,479,533
398120,594,446,429
398125,408,512,439
398129,359,573,549
398133,524,534,595
398137,657,451,514
398141,561,448,424
398145,381,528,461
398149,384,575,572
398153,568,517,595
398157,657,443,493
398161,515,463,423
398166,356,548,486
398170,415,570,590
398174,605,500,577
398177,642,439,466
398181,470,483,424
398185,347,566,512
398189,456,567,593
398193,635,483,551
398197,619,441,445
398201,429,504,436
398205,350,573,537
398210,501,547,602
398214,659,464,530
398218,586,450,433
398222,394,528,452
398226,365,586,560
398230,543,536,598
398233,663,457,506
398237,541,463,425
398241,362,543,478
398245,394,575,589
398249,589,508,590
398254,659,439,486
398258,498,472,424
398262,349,557,500
398266,434,568,595
398270,624,492,568
398274,639,440,458
398278,452,492,428
398282,345,573,522
398286,478,557,595
398289,648,473,541
398294,604,443,433
398298,413,512,435
398302,353,579,539
398306,520,536,591
398310,662,450,514
398314,567,450,426
398318,378,537,454
398322,372,583,564
398326,560,526,588
398330,659,450,491
398334,524,463,420
398339,359,544,481
398343,409,568,590
398346,600,500,582
398350,649,443,471
398354,482,480,421
398358,350,556,500
398362,449,556,592
398366,631,478,558
398370,626,437,445
398374,437,495,426
398379,352,569,525
398383,494,544,594
398387,653,465,532
398391,589,447,427
398395,398,523,439
398399,362,585,547
398402,531,538,589
398406,653,453,504
398410,547,456,416
398414,373,539,454
398418,392,580,564
398423,577,516,581
398427,652,443,480
398431,506,467,420
398435,358,551,490
398439,429,565,590
398443,612,484,570
398447,635,428,462
398451,460,481,426
398455,349,566,514
398458,464,556,594
398462,635,474,554
398467,605,440,443
398471,421,501,433
398475,359,570,537
398479,510,537,596
398483,649,454,521
398487,569,447,425
398491,390,527,447
398495,376,578,557
398499,549,524,589
398503,652,449,493
398508,528,464,420
398512,366,543,475
398515,406,572,581
398519,586,510,581
398523,643,450,480
398527,488,484,425
398531,360,562,507
398535,442,560,598
398539,615,481,566
398543,619,434,457
398547,446,493,435
398552,354,570,531
398556,480,550,605
398560,636,467,538
398564,586,447,430
398568,410,515,439
398571,365,574,542
398575,524,531,589
398579,647,444,510
398583,551,445,420
398587,380,527,455
398592,387,575,565
398596,562,519,586
398600,643,441,481
398604,509,467,412
398608,361,560,479
398612,419,577,586
398616,596,495,572
398620,629,430,461
398624,465,477,422
398627,353,561,512
398631,458,549,601
398636,626,457,551
398640,610,421,442
398644,433,500,433
398648,359,581,538
398652,502,542,601
398656,645,449,523
398660,574,437,421
398664,397,520,443
398668,374,577,553
398672,544,520,587
398676,654,435,496
398681,540,455,417
398684,376,546,469
398688,405,578,576
398692,580,499,582
398696,640,424,479
398700,493,470,413
398704,358,568,490
398708,435,572,592
398712,610,475,565
398716,623,418,456
398721,454,489,428
398725,355,584,522
398729,475,557,599
398733,634,454,541
398737,594,433,435
398740,417,527,438
398744,368,602,548
398748,520,545,597
398752,644,444,515
398756,559,449,427
398760,387,551,461
398765,389,596,575
398769,560,512,589
398773,645,425,485
398777,518,465,419
398781,369,570,480
398785,420,583,577
398789,597,490,567
398793,636,425,459
398796,480,492,416
398800,363,594,505
398804,457,572,592
398809,621,459,555
398813,612,422,447
398817,438,512,430
398821,359,601,532
398825,492,562,604
398829,638,458,538
398833,580,441,439
398837,406,530,454
398841,373,593,559
398845,531,533,597
398850,644,441,510
398853,537,457,426
398857,376,558,478
398861,399,599,581
398865,570,514,589
398869,636,432,483
398873,497,473,421
398877,361,573,494
398881,429,579,593
398885,604,479,570
398889,623,423,460
398894,462,497,426
398898,362,594,518
398902,471,571,598
398906,626,470,545
398909,596,444,437
398913,425,534,435
398917,366,608,542
398921,508,552,601
398925,640,450,525
398929,563,449,429
398934,395,547,455
398938,385,599,563
398942,547,525,594
398946,640,435,493
398950,521,465,416
398954,371,568,473
398958,412,588,580
398962,587,496,573
398965,634,425,465
398969,481,481,414
398973,357,579,495
398978,445,573,588
398982,610,473,553
398986,612,426,447
398990,440,507,429
398994,353,593,529
398998,484,554,601
399002,638,454,536
399006,590,438,430
399010,413,532,443
399014,374,599,559
399019,531,540,600
399022,649,438,512
399026,549,448,428
399030,382,547,468
399034,394,590,573
399038,568,509,588
399042,646,428,486
399046,509,479,420
399050,365,584,487
399054,425,582,585
399058,600,479,568
399063,630,421,457
399067,467,492,418
399071,358,584,507
399075,463,556,588
399078,627,448,539
399082,607,419,432
399086,432,513,430
399090,364,594,535
399094,506,544,597
399098,642,441,518
399102,569,445,422
399107,399,549,448
399111,380,597,560
399115,543,514,594
399119,648,423,502
399123,534,457,421
399127,374,563,473
399131,408,585,579
399134,584,493,578
399138,640,423,472
399142,492,484,419
399147,363,585,495
399151,442,572,589
399155,614,467,560
399159,622,420,453
399163,450,502,428
399167,356,588,525
399171,477,550,600
399175,632,448,535
399179,595,433,434
399183,420,531,436
399187,373,601,542
399191,529,537,596
399195,654,436,518
399199,559,443,424
399203,387,541,457
399207,389,585,568
399211,567,509,587
399215,654,428,484
399219,520,466,416
399223,367,567,483
399227,420,581,585
399232,595,486,575
399236,636,422,468
399240,478,485,425
399244,354,583,509
399247,456,564,592
399251,630,459,550
399255,615,421,443
399259,434,509,426
399263,358,590,525
399267,500,545,593
399271,649,443,527
399276,577,435,427
399280,395,533,441
399284,373,594,548
399288,543,524,587
399292,659,431,500
399296,544,456,419
399300,374,561,471
399303,396,591,578
399307,583,501,585
399311,653,424,481
399315,503,475,420
399320,359,575,493
399324,432,574,590
399328,613,476,565
399332,629,424,459
399336,453,490,424
399340,351,578,522
399344,472,553,598
399348,639,455,542
399352,603,429,437
399356,419,512,432
399360,362,586,534
399364,519,535,590
399368,651,435,514
399372,562,436,419
399376,387,536,452
399380,384,591,560
399384,559,523,583
399388,651,437,491
399392,524,466,422
399396,368,566,484
399400,413,587,588
399405,594,498,582
399409,642,436,466
399413,486,487,419
399416,358,583,505
399420,449,574,596
399424,623,471,560
399428,619,430,450
399432,443,516,429
399436,357,598,529
399440,486,546,597
399444,638,441,529
399449,583,433,428
399453,404,529,445
399457,366,595,555
399461,532,532,594
399465,654,438,505
399469,547,455,422
399472,375,558,464
399476,395,597,575
399480,575,515,584
399484,651,431,481
399489,509,476,423
399493,362,578,492
399497,426,583,587
399501,606,485,568
399505,634,429,463
399509,466,499,429
399513,355,588,518
399517,469,565,597
399521,636,464,549
399524,608,427,443
399528,425,521,433
399533,359,597,542
399537,511,540,604
399541,653,440,523
399545,574,436,426
399549,390,533,454
399553,375,586,564
399557,553,512,593
399561,658,422,494
399565,531,448,417
399569,364,550,473
399574,405,581,579
399578,593,500,579
399581,649,431,474
399585,488,485,421
399589,351,583,507
399593,438,577,599
399597,621,474,566
399601,627,434,453
399605,446,516,428
399609,350,603,526
399613,478,561,596
399618,641,450,536
399622,597,430,435
399626,411,528,443
399630,364,595,547
399634,530,535,595
399637,661,439,510
399641,560,447,422
399645,380,546,459
399649,388,591,570
399653,573,512,582
399657,660,429,484
399662,516,469,417
399666,360,571,484
399670,423,585,590
399674,610,484,572
399678,645,418,463
399682,476,484,424
399686,355,579,510
399690,462,570,594
399693,634,478,550
399697,619,434,445
399702,436,509,437
399706,360,592,541
399710,504,553,599
399714,652,454,528
399718,579,443,431
399722,394,535,453
399726,376,596,559
399730,547,528,592
399734,658,436,498
399738,542,462,420
399742,374,557,472
399747,406,585,575
399750,590,504,575
399754,655,429,475
399758,503,478,418
399762,362,577,491
399766,442,581,586
399770,621,486,559
399774,632,435,452
399778,458,502,427
399782,355,587,520
399787,478,561,595
399791,641,461,543
399795,600,435,439
399799,416,522,440
399803,362,594,547
399806,521,544,590
399810,656,448,511
399814,562,446,417
399818,389,539,452
399822,387,589,566
399826,566,514,581
399831,658,425,482
399835,524,457,413
399839,366,561,472
399843,417,587,574
399847,603,491,569
399851,646,416,461
399855,482,473,416
399859,357,576,505
399862,458,568,586
399866,633,463,547
399870,624,418,444
399875,441,500,429
399879,358,586,533
399883,499,550,597
399887,652,447,533
399891,588,432,435
399895,401,529,450
399899,369,594,558
399903,543,524,595
399907,665,426,507
399911,553,446,422
399916,376,550,465
399919,396,584,573
399923,585,497,583
399927,662,419,481
399931,509,465,423
399935,359,572,488
399939,433,576,585
399943,618,471,566
399947,640,414,456
399951,459,491,425
399955,351,586,519
399960,473,559,594
399964,648,451,537
399968,615,424,432
399972,423,517,435
399975,357,594,539
399979,514,540,593
399983,659,438,518
399987,574,439,429
399991,391,540,460
399995,378,591,568
400000,563,514,593
400004,665,425,501
400008,532,460,427
400012,363,563,478
400016,408,582,576
400020,597,492,568
400024,652,421,469
400028,490,473,420
400031,357,573,496
400035,451,566,586
400039,635,465,553
400044,632,422,450
400048,448,504,428
400052,356,592,522
400056,491,549,596
400060,649,446,535
400064,597,435,433
400068,412,530,444
400072,369,595,552
400076,535,530,596
400080,664,433,511
400084,558,448,427
400088,379,551,469
400092,392,592,574
400096,577,512,588
400100,660,428,487
400104,513,465,422
400108,358,567,487
400112,423,579,587
400116,612,480,570
400120,645,418,457
400124,470,487,419
400129,347,584,505
400133,460,565,586
400137,643,460,543
400141,621,423,440
400144,430,508,428
400147,357,591,530
400151,511,546,594
400155,664,450,520
400159,586,448,426
400163,400,543,450
400167,377,598,565
400172,556,530,596
400176,670,436,497
400180,548,457,419
400184,373,557,468
400188,405,590,576
400192,597,506,584
400196,661,432,477
400199,499,484,417
400203,354,584,492
400207,439,585,589
400211,628,487,563
400216,640,435,455
400220,454,506,429
400224,349,589,527
400228,484,558,598
400232,656,460,535
400236,611,435,430
400240,418,528,437
400244,364,600,543
400248,530,530,598
400252,666,423,517
400256,568,432,423
400260,383,532,458
400264,383,576,570
400268,570,498,593
400272,665,421,495
400276,527,469,424
400280,362,575,485
400284,416,587,584
400288,609,486,573
400292,651,429,465
400296,478,497,425
400301,349,589,503
400305,458,561,590
400309,638,454,551
400312,621,419,440
400316,431,498,429
400320,348,581,530
400324,497,536,594
400328,654,435,522
400332,591,434,423
400336,401,536,443
400340,369,594,551
400345,544,521,590
400349,658,428,500
400353,523,448,421
400357,345,550,473
400361,390,586,573
400365,592,511,577
400368,662,430,477
400371,500,472,419
400375,337,566,500
400379,421,566,592
400384,636,468,563
400388,647,417,457
400392,444,484,427
400396,332,573,523
400400,469,556,599
400404,658,463,543
400408,623,434,438
400412,427,512,434
400416,362,584,543
400420,535,543,598
400423,688,450,516
400427,592,447,427
400431,391,532,457
400435,373,586,562
400439,560,528,587
400443,672,445,492
400447,539,468,416
400451,361,556,480
400455,410,576,584
400459,612,501,575
400463,648,439,471
400467,447,482,426
400472,314,565,509
400476,455,567,601
400479,644,482,563
400482,642,443,455
400486,454,517,436
400490,354,593,532
400494,491,552,602
400498,626,451,535
400502,551,426,428
400506,397,504,443
400510,395,565,557
400515,571,519,598
400519,691,439,508
400523,576,450,421
400527,388,537,458
400531,393,579,561
400534,591,516,572
400538,669,440,473
400542,489,472,411
400546,318,571,487
400550,410,578,589
400555,646,487,571
400559,681,426,461
400563,480,491,425
400567,343,587,515
400571,470,573,592
400575,668,468,537
400579,633,427,435
400583,415,507,435
400587,335,590,543
400590,510,543,594
400594,680,446,515
400599,540,439,419
400603,338,532,446
400607,371,593,547
400611,568,533,587
400615,703,442,497
400619,558,458,422
400623,347,560,473
400627,396,598,574
400631,627,524,576
400635,693,446,470
400640,484,483,416
400644,312,572,497
400647,426,576,596
400651,648,488,563
400655,627,431,451
400659,407,485,428
400663,297,563,527
400667,495,545,597
400671,702,462,538
400675,618,437,437
400679,274,506,445
400684,195,566,549
400688,528,520,598
400692,748,436,514
400696,635,452,423
400700,389,553,457
400703,383,594,560
400706,630,514,576
400710,744,434,485
400714,538,474,425
400718,312,582,486
400722,392,596,581
400727,635,496,571
400731,700,423,469
400735,458,473,430
400739,268,560,511
400743,431,560,597
400747,699,483,553
400751,654,444,448
400755,376,503,432
400759,229,574,535
400762,426,548,598
400766,761,466,528
400771,691,450,431
400775,381,522,451
400779,300,577,558
400783,568,532,591
400787,776,453,501
400791,597,463,422
400795,293,547,468
400799,313,578,574
400803,627,512,584
400807,759,445,480
400812,497,475,415
400816,267,560,493
400819,404,577,591
400823,706,497,563
400827,719,442,454
400831,429,495,425
400835,230,575,519
400839,366,559,595
400843,679,476,541
400847,699,445,439
400851,389,509,442
400856,251,577,546
400860,518,542,595
400864,778,459,519
400868,646,453,431
400871,346,530,462
400874,336,575,567
400878,612,518,588
400882,764,443,491
400886,509,463,421
400890,211,546,483
400894,352,569,581
400899,667,501,570
400903,675,439,468
400907,477,484,419
400911,294,571,499
400915,471,571,587
400919,770,488,554
400923,750,443,453
400926,414,501,431
400929,249,575,527
400933,480,550,592
400937,756,461,531
400942,667,441,435
400946,336,516,450
400950,255,580,554
400954,552,536,591
400958,753,454,507
400962,557,457,426
400966,272,535,469
400970,316,574,570
400974,641,513,578
400978,772,443,479
400983,518,473,420
400986,251,556,488
400990,359,565,584
400994,678,492,564
400998,725,437,454
401002,436,486,417
401006,240,573,509
401010,425,561,589
401014,732,472,540
401018,703,439,438
401022,385,505,433
401027,256,572,535
401031,505,536,594
401035,760,454,520
401039,616,448,428
401042,301,527,455
401046,285,581,566
401050,602,534,591
401054,798,452,497
401058,575,462,421
401062,267,542,474
401067,328,568,574
401071,663,497,572
401075,765,435,472
401079,472,477,418
401083,222,567,492
401087,381,568,584
401091,717,482,559
401095,715,441,444
401098,381,504,410
401102,228,586,496
401106,476,557,582
401111,789,462,538
401115,704,441,440
401119,350,516,448
401123,248,582,556
401127,538,531,607
401131,763,444,519
401135,589,458,427
401139,277,544,463
401143,289,572,556
401147,622,507,572
401152,793,432,488
401155,537,457,434
401159,246,545,489
401163,359,568,594
401167,704,501,578
401171,763,446,463
401175,442,492,416
401179,220,570,510
401183,427,560,589
401187,752,478,549
401191,718,444,442
401196,381,514,418
401200,235,589,523
401204,494,548,585
401207,773,452,516
401211,644,441,433
401215,308,526,445
401219,253,579,554
401223,556,532,586
401227,772,449,508
401231,559,465,422
401235,257,550,467
401240,327,578,574
401244,663,509,573
401248,784,447,460
401252,508,480,396
401256,246,554,478
401260,371,569,591
401263,695,489,569
401267,732,427,470
401271,421,469,435
401275,212,562,527
401280,419,561,600
401284,712,473,527
401288,619,448,422
401292,309,528,427
401296,246,601,532
401300,487,562,588
401304,668,465,522
401308,545,458,427
401312,320,543,453
401316,326,599,572
401319,607,533,599
401324,751,428,501
401328,495,447,417
401332,273,536,463
401336,403,580,549
401340,709,544,495
401344,785,497,446
401348,545,503,450
401352,334,554,537
401356,458,566,601
401360,717,517,549
401364,669,477,439
401369,370,510,429
401373,238,597,522
401376,458,547,576
401380,721,453,499
401384,571,426,386
401388,289,490,404
401392,293,596,495
401396,577,629,544
401400,766,525,551
401404,586,455,474
401409,326,481,531
401413,366,502,626
401417,610,474,578
401421,702,448,444
401425,501,510,367
401429,295,566,492
401432,376,543,614
401436,616,494,589
401440,625,473,480
401444,458,481,470
401448,325,542,547
401453,496,551,600
401457,748,541,513
401461,678,484,461
401465,371,500,467
401469,306,602,503
401473,534,644,533
401477,712,543,509
401481,594,468,450
401485,375,528,487
401488,402,559,609
401492,636,491,634
401497,721,444,504
401501,517,578,316
401505,328,719,402
401509,429,634,633
401513,701,463,648
401517,731,365,509
401521,457,468,441
401525,299,590,499
401529,469,582,590
401533,678,507,558
401538,681,408,533
401542,457,452,517
401545,325,529,575
401549,457,509,610
401553,687,462,535
401557,683,528,385
401561,399,650,402
401565,322,660,581
401569,527,543,629
401573,670,465,516
401577,574,593,345
401582,360,822,326
401586,400,840,538
401590,658,502,720
401594,724,231,636
401598,513,250,525
401601,323,398,521
401605,375,452,575
401609,625,438,575
401613,714,423,484
401617,513,508,456
401622,312,621,513
401626,397,589,629
401630,685,506,582
401634,663,381,507
401638,387,403,498
401642,227,516,539
401646,470,493,605
401650,691,417,564
401654,610,430,438
401657,341,533,445
401661,253,604,575
401666,606,610,554
401670,752,531,484
401674,576,446,486
401678,379,448,515
401682,370,498,625
401686,573,462,600
401690,666,407,492
401694,481,431,471
401698,304,564,538
401702,428,569,617
401707,665,481,592
401711,691,402,504
401714,443,445,457
401718,273,545,541
401722,427,541,615
401726,610,469,544
401730,544,443,409
401734,403,542,383
401738,397,657,517
401742,572,583,586
401746,718,518,460
401751,595,509,382
401755,403,615,447
401759,403,564,635
401763,624,376,675
401767,684,259,550
401770,523,414,395
401774,363,561,491
401778,414,492,645
401782,614,376,629
401786,611,331,483
401790,486,470,369
401795,343,618,468
401799,438,686,550
401803,643,503,585
401807,599,355,507
401811,436,393,474
401815,378,502,559
401819,539,516,582
401823,675,447,523
401826,569,415,442
401830,376,511,434
401835,395,673,475
401839,583,644,574
401843,706,439,521
401847,585,386,421
401851,367,565,406
401855,388,586,593
401859,601,436,642
401863,679,338,509
401867,467,414,402
401871,290,570,483
401875,407,619,583
401880,624,574,519
401883,668,419,497
401887,502,423,453
401891,363,567,483
401895,486,642,523
401899,669,489,557
401903,621,367,477
401907,381,442,451
401911,322,526,555
401915,547,539,544
401920,727,428,559
401924,634,378,466
401928,397,481,443
401932,369,688,448
401936,572,574,595
401939,687,384,530
401943,575,408,442
401947,388,513,495
401951,387,508,605
401955,576,424,583
401959,629,366,494
401964,499,453,414
401968,357,580,489
401972,472,604,568
401976,659,501,562
401980,622,507,421
401984,417,621,377
401988,314,591,527
401992,531,470,623
401995,726,351,546
401999,647,410,376
402003,413,553,431
402008,365,601,556
402012,538,539,597
402016,686,435,497
402020,588,477,401
402024,386,534,511
402028,388,565,617
402032,566,453,585
402036,640,350,470
402040,477,394,415
402044,324,532,470
402049,451,589,563
402052,655,492,582
402056,667,408,473
402060,492,481,392
402064,367,549,511
402068,508,543,558
402072,710,498,509
402076,651,432,466
402080,445,461,461
402084,356,573,550
402088,491,531,578
402093,644,406,523
402097,567,417,407
402101,371,554,427
402105,382,602,587
402108,567,509,590
402112,653,401,489
402116,487,418,409
402120,348,558,449
402124,449,655,530
402128,657,516,564
402132,682,435,476
402137,461,494,401
402141,287,570,493
402145,447,512,617
402149,669,415,576
402153,681,416,437
402157,480,478,385
402161,366,520,534
402164,447,496,598
402168,609,412,514
402172,619,418,426
402177,447,492,459
402181,382,595,559
402185,526,554,581
402189,701,518,465
402193,590,495,422
402197,353,544,450
402201,375,555,578
402205,587,479,620
402209,659,390,504
402213,494,406,429
402217,349,536,492
402221,400,569,593
402225,584,501,546
402229,655,425,462
402233,469,440,432
402237,347,560,491
402241,495,629,575
402245,653,538,517
402249,638,424,421
402253,469,482,404
402257,353,592,532
402262,491,526,614
402266,682,418,528
402270,610,421,425
402274,391,494,475
402277,362,587,559
402281,541,571,574
402285,650,466,469
402289,534,502,398
402293,355,552,494
402297,397,517,614
402301,598,423,617
402306,679,371,501
402310,485,463,433
402314,325,573,472
402318,447,625,501
402322,628,527,520
402326,645,421,471
402330,416,470,454
402333,327,522,542
402337,438,502,601
402341,628,465,469
402345,620,454,425
402350,384,489,460
402354,350,537,554
402358,562,519,591
402362,690,456,495
402366,565,479,404
402370,346,564,463
402374,391,560,568
402378,578,477,600
402382,676,399,493
402386,535,469,397
402390,361,593,459
402394,390,579,575
402398,586,466,566
402402,683,425,445
402406,542,553,389
402410,396,640,472
402414,458,570,586
402418,647,432,564
402422,653,376,445
402426,461,503,416
402430,360,584,522
402435,482,540,577
402439,650,426,533
402443,597,430,426
402446,427,538,414
402450,376,634,508
402454,513,511,600
402458,660,427,478
402462,536,473,388
402466,370,501,492
402470,411,516,604
402475,570,454,603
402479,634,414,465
402483,475,502,393
402487,341,646,436
402491,445,596,609
402495,629,442,579
402499,628,396,452
402502,476,527,357
402506,383,635,520
402510,473,560,608
402514,655,442,541
402519,629,456,401
402523,432,515,442
402527,312,542,566
402531,492,511,597
402535,678,435,443
402539,589,537,340
402543,389,623,470
402547,385,584,590
402551,529,451,602
402555,632,349,471
402558,533,411,408
402563,352,590,469
402567,374,640,609
402571,573,489,603
402575,664,405,463
402579,497,468,406
402583,335,555,487
402587,429,597,539
402591,617,472,565
402595,626,401,439
402599,455,507,391
402604,360,626,493
402608,484,675,579
402611,639,511,576
402614,605,413,486
402618,391,477,459
402622,320,571,491
402626,488,548,559
402630,636,443,529
402634,552,471,407
402638,389,571,472
402642,389,617,560
402647,565,499,587
402651,639,410,483
402655,495,485,387
402659,337,607,495
402663,391,575,609
402666,577,461,577
402669,619,450,456
402673,469,521,415
402677,382,600,534
402681,487,582,569
402685,656,513,500
402690,614,459,422
402694,416,544,421
402698,336,595,559
402702,455,483,628
402706,602,386,529
402710,570,429,430
402714,399,655,379
402718,369,753,529
402721,525,565,626
402724,581,371,541
402728,480,355,461
402733,358,499,463
402737,431,569,566
402741,601,509,545
402745,638,416,462
402749,463,455,431
402753,330,606,452
402757,407,687,509
402761,612,517,601
402765,605,404,478
402769,412,453,430
402774,311,543,560
402777,417,504,629
402780,632,459,533
402784,594,455,449
402788,392,505,464
402792,347,580,520
402796,528,592,523
402800,669,509,485
402804,562,432,486
402808,357,492,484
402812,350,532,552
402817,515,469,594
402821,628,424,486
402825,518,516,404
402829,351,636,457
402832,395,577,590
402835,579,467,582
402839,631,444,423
402843,448,501,439
402847,311,617,489
402851,438,648,555
402855,618,461,543
402860,602,425,447
402864,404,538,465
402868,309,593,570
402872,459,513,616
402876,626,400,546
402880,575,442,421
402884,376,557,455
402887,344,571,575
402891,517,520,578
402895,630,474,472
402899,502,434,435
402904,324,531,450
402908,380,573,575
402912,598,521,586
402916,669,428,493
402920,502,455,440
402924,331,599,456
402928,378,704,583
402932,585,541,581
402936,631,399,443
402940,459,483,362
402944,339,591,546
402948,422,549,636
402952,583,490,549
402956,601,444,429
402960,425,481,448
402964,328,538,554
402968,442,508,605
402972,590,412,528
402976,526,432,449
402980,396,553,467
402984,386,605,564
402989,550,498,597
402993,637,420,483
402997,515,487,382
403000,376,627,453
403004,402,636,582
403008,572,493,594
403012,628,428,452
403016,455,554,397
403020,330,626,507
403024,420,554,618
403028,615,436,559
403033,606,413,430
403037,403,518,409
403041,307,637,503
403045,441,564,597
403049,620,406,553
403053,578,348,455
403056,364,453,464
403060,323,566,533
403064,537,523,586
403068,665,463,506
403073,562,505,426
403077,385,558,472
403081,403,611,535
403085,561,514,578
403089,624,438,506
403093,486,450,414
403097,363,629,474
403101,423,610,607
403105,587,448,581
403109,615,370,458
403112,441,493,400
403117,342,655,461
403121,427,583,621
403125,612,424,579
403129,567,369,468
403133,377,487,429
403137,313,600,545
403141,501,547,584
403145,638,421,533
403149,594,414,430
403153,432,529,434
403158,380,622,546
403162,514,547,572
403166,644,474,457
403169,500,484,415
403173,387,536,502
403177,432,544,612
403181,602,492,591
403185,669,473,447
403189,495,542,414
403193,348,570,521
403197,449,551,603
403202,629,435,559
403206,625,379,477
403210,447,490,414
403214,334,592,495
403218,460,516,610
403222,617,412,535
403225,570,433,444
403229,398,507,458
403233,391,567,528
403237,548,540,576
403241,659,435,520
403246,575,449,404
403250,411,565,442
403254,393,607,575
403258,536,535,591
403262,615,423,499
403266,509,458,414
403270,350,573,483
403274,419,577,608
403278,630,514,555
403281,673,431,459
403286,490,487,411
403290,363,626,491
403294,452,571,610
403298,653,436,581
403302,636,394,449
403306,437,469,446
403310,327,590,547
403314,509,577,599
403318,661,457,502
403322,598,423,411
403326,423,509,439
403331,359,565,557
403335,507,510,593
403338,666,452,498
403342,576,484,422
403346,423,582,464
403350,429,594,571
403354,571,531,554
403358,645,474,461
403362,518,452,464
403366,392,520,521
403371,466,573,596
403375,647,512,554
403379,650,412,473
403383,438,494,428
403387,322,611,496
403391,484,621,594
403394,690,463,538
403398,639,387,460
403402,433,483,447
403406,330,609,516
403410,468,574,593
403415,621,427,539
403419,579,395,438
403423,434,499,474
403427,415,578,584
403431,584,551,552
403435,684,497,429
403439,559,507,413
403443,398,556,527
403447,412,565,607
403450,575,509,532
403454,648,470,416
403459,516,500,436
403463,401,588,470
403467,485,567,561
403471,617,462,555
403475,601,432,389
403479,437,474,369
403483,367,574,503
403487,499,554,648
403491,666,420,531
403495,580,431,376
403500,423,545,408
403504,429,620,590
403507,585,544,622
403511,665,440,539
403515,573,424,460
403519,440,564,451
403523,443,590,605
403527,605,489,625
403531,637,402,485
403535,536,446,420
403539,422,588,494
403544,456,602,593
403548,628,495,557
403552,654,461,424
403556,477,554,395
403560,373,595,541
403563,473,536,612
403567,618,437,553
403571,643,458,408
403575,463,521,398
403579,416,559,559
403584,544,518,617
403588,683,475,534
403592,619,493,406
403596,457,552,427
403600,460,600,561
403604,591,546,600
403608,662,437,508
403612,550,454,449
403616,378,543,473
403619,428,576,565
403623,606,504,582
403628,652,433,471
403632,514,498,432
403636,396,598,544
403640,477,598,611
403644,635,503,560
403648,609,438,431
403652,421,495,442
403656,387,616,519
403660,556,582,582
403664,686,481,520
403668,623,438,431
403673,468,501,471
403676,433,564,576
403680,591,528,584
403684,673,470,486
403688,576,464,451
403692,438,560,485
403696,446,645,561
403700,581,538,566
403704,635,420,486
403708,544,451,427
403713,423,609,473
403717,446,606,610
403721,597,486,559
403725,654,397,480
403729,500,461,446
403732,393,578,489
403736,481,558,576
403740,642,436,545
403744,615,396,460
403748,486,490,428
403752,420,619,499
403757,524,572,608
403761,623,467,534
403765,577,437,482
403769,456,506,487
403773,449,579,567
403777,569,530,579
403781,618,443,498
403785,529,478,435
403788,430,593,447
403792,482,575,606
403796,614,453,593
403801,658,401,454
403805,513,463,399
403809,389,593,466
403813,480,647,545
403817,652,501,593
403821,662,384,480
403825,497,454,462
403829,385,562,535
403833,502,544,602
403837,661,473,520
403842,611,472,409
403845,436,510,439
403849,366,552,581
403853,526,507,629
403857,681,410,512
403861,611,438,391
403865,473,573,448
403869,467,710,529
403873,581,612,607
403877,649,405,516
403881,535,403,439
403886,415,501,501
403890,464,528,591
403894,619,448,561
403898,643,433,429
403901,518,531,406
403905,432,606,509
403909,515,576,615
403913,648,450,531
403917,623,424,437
403921,461,503,440
403926,409,585,540
403930,525,558,611
403934,619,475,522
403938,584,450,434
403942,445,574,431
403946,429,649,523
403950,550,526,605
403954,640,401,501
403957,564,404,437
403961,437,512,486
403965,441,584,577
403970,568,500,596
403974,625,428,467
403978,527,505,390
403982,430,588,503
403986,498,559,601
403990,625,471,550
403994,608,426,453
403998,442,510,421
404002,380,591,534
404006,503,566,608
404011,646,490,557
404014,626,432,463
404018,468,493,455
404022,402,575,538
404026,483,551,572
404030,614,459,520
404034,563,452,437
404038,409,557,441
404042,420,617,565
404046,586,519,579
404050,644,435,469
404055,525,542,362
404059,401,628,476
404063,440,554,620
404067,567,456,593
404070,619,419,476
404074,486,451,435
404078,380,542,502
404082,454,569,576
404086,611,556,514
404090,615,460,470
404094,477,461,466
404099,394,555,517
404103,472,569,594
404107,584,471,534
404111,549,429,424
404115,428,516,450
404119,384,603,539
404123,542,530,585
404126,642,428,521
404130,516,483,416
404134,362,587,488
404139,427,595,583
404143,577,520,589
404147,638,442,463
404151,519,514,394
404155,387,608,478
404159,419,575,591
404163,568,491,567
404167,619,450,454
404171,484,477,462
404175,373,568,495
404179,444,615,562
404183,558,485,576
404187,567,398,452
404191,444,458,427
404195,380,604,481
404199,492,572,581
404203,605,414,547
404207,555,412,450
404211,425,600,441
404215,426,613,577
404219,539,514,586
404224,605,425,491
404228,507,435,444
404232,386,520,503
404236,430,568,591
404239,580,529,556
404243,611,434,483
404247,491,480,407
404251,392,631,459
404255,453,611,610
404259,595,486,579
404263,574,440,449
404268,445,465,442
404272,389,545,530
404276,491,533,582
404280,608,436,543
404284,558,429,443
404288,418,552,410
404291,406,640,517
404294,541,556,584
404298,633,471,487
404302,539,466,432
404306,400,509,487
404311,392,544,597
404315,543,470,600
404319,614,407,493
404323,531,446,434
404327,389,556,486
404331,432,611,568
404335,583,535,562
404339,594,447,462
404343,468,518,396
404346,377,636,480
404349,472,613,592
404354,609,482,538
404358,602,417,440
404362,441,491,451
404366,380,574,558
404370,476,524,604
404374,566,410,542
404378,523,404,444
404382,423,529,447
404386,399,614,525
404390,545,573,550
404395,652,474,510
404399,543,462,412
404402,384,536,475
404405,419,561,572
404409,559,505,570
404413,610,454,457
404417,509,505,418
404421,404,606,499
404425,463,590,594
404429,607,475,561
404433,601,416,484
404438,469,472,482
404442,391,573,515
404446,481,564,558
404450,615,474,522
404454,587,485,416
404457,427,527,413
404460,377,548,594
404464,506,468,655
404468,629,378,537
404472,560,411,433
404476,410,589,413
404481,398,681,512
404485,535,596,579
404489,641,432,518
404493,541,386,475
404497,406,494,480
404501,422,595,566
404505,536,509,601
404509,569,409,492
404513,468,451,440
404516,402,535,508
404520,479,564,525
404525,593,507,538
404529,590,459,479
404533,439,495,440
404537,399,607,522
404541,496,630,568
404545,618,464,544
404549,581,400,467
404553,413,495,460
404557,378,532,584
404561,519,487,607
404566,630,422,509
404570,547,472,370
404573,425,594,441
404577,427,589,558
404581,569,503,615
404585,616,464,466
404589,501,548,377
404593,387,566,534
404597,434,536,615
404601,574,437,544
404605,592,372,496
404610,446,429,464
404614,346,561,538
404618,462,579,574
404622,600,490,515
404625,566,472,431
404629,448,595,392
404633,408,717,455
404637,519,545,626
404641,631,343,588
404645,554,334,452
404649,397,476,480
404654,380,588,561
404658,518,568,602
404662,619,436,508
404666,529,413,403
404670,416,526,470
404674,438,564,592
404678,596,490,579
404681,634,418,476
404685,512,472,416
404689,396,602,505
404694,479,575,619
404698,591,453,536
404702,564,439,415
404706,405,477,450
404710,372,554,550
404714,484,533,595
404718,596,540,440
404722,587,636,354
404726,433,543,505
404730,412,492,619
404734,534,430,631
404738,628,381,507
404742,560,438,408
404746,430,518,470
404750,446,565,597
404754,594,475,628
404758,635,399,487
404762,501,472,396
404766,389,626,458
404770,446,642,550
404774,599,515,585
404779,617,388,487
404783,489,430,438
404787,398,559,491
404791,474,560,573
404794,612,496,541
404798,581,471,449
404802,406,499,469
404806,354,547,568
404810,500,511,604
404814,633,427,529
404818,543,438,426
404823,423,532,451
404827,412,614,538
404831,575,645,528
404835,659,507,483
404839,547,431,411
404843,390,474,511
404847,426,517,600
404850,580,473,607
404854,627,414,434
404858,494,471,414
404862,389,555,532
404867,456,562,604
404871,594,504,572
404875,603,460,420
404879,454,551,395
404883,375,598,525
404887,485,516,641
404891,624,429,543
404895,594,436,425
404899,443,539,438
404903,405,590,538
404907,525,535,585
404911,645,427,514
404915,554,435,412
404919,391,561,441
404923,385,605,588
404927,544,493,588
404931,620,399,476
404935,528,454,419
404939,413,611,475
404943,468,643,576
404947,601,503,567
404952,625,413,462
404956,495,493,408
404960,379,589,500
404963,460,552,615
404967,615,419,561
404971,610,379,467
404975,445,479,463
404979,365,585,524
404983,459,557,606
404987,616,447,532
404992,605,439,429
404996,476,508,455
405000,441,564,559
405004,571,523,575
405008,636,456,477
405012,550,476,439
405016,417,554,478
405019,418,589,559
405023,572,494,586
405027,614,422,448
405031,482,516,394
405036,388,619,491
405040,462,562,610
405044,604,447,561
405048,610,424,441
405052,446,536,437
405056,372,633,506
405060,491,636,575
405064,651,459,557
405068,610,406,444
405072,453,484,455
405075,390,545,548
405080,528,535,599
405084,656,438,534
405088,587,432,449
405092,420,527,462
405096,383,588,566
405100,537,593,578
405104,628,466,500
405108,532,458,410
405112,408,568,452
405116,426,635,574
405121,589,507,596
405125,610,384,481
405129,473,452,407
405132,382,567,516
405136,466,564,598
405140,613,482,548
405144,613,434,454
405148,483,494,427
405152,408,577,532
405156,504,538,594
405160,632,453,527
405165,599,481,422
405169,441,551,437
405173,394,580,555
405177,523,501,612
405181,618,400,511
405185,543,456,404
405188,399,595,415
405192,394,590,555
405196,546,486,584
405200,629,425,428
405204,513,505,377
405209,408,603,461
405213,477,572,601
405217,607,464,586
405221,607,401,472
405225,462,489,439
405229,384,609,510
405233,490,563,594
405237,624,424,582
405241,586,393,448
405244,453,481,437
405249,380,600,530
405253,487,592,577
405257,612,467,511
405261,569,428,436
405265,452,503,478
405269,442,569,559
405273,563,526,573
405277,611,459,506
405281,491,478,419
405285,374,554,483
405289,450,572,595
405294,601,515,571
405298,644,446,463
405301,500,481,397
405305,375,592,479
405309,470,604,603
405313,622,521,557
405317,606,432,465
405321,467,488,418
405325,379,584,494
405329,509,542,607
405334,645,411,586
405338,599,384,458
405342,431,530,419
405346,351,613,529
405350,475,523,611
405354,647,431,536
405357,595,436,420
405361,451,526,463
405365,447,578,560
405369,572,501,606
405373,616,427,506
405378,473,457,429
405382,351,562,476
405386,447,589,597
405390,617,509,549
405394,638,461,433
405398,498,492,435
405402,401,607,507
405406,490,577,606
405410,628,437,566
405413,605,399,442
405417,446,514,416
405422,394,592,525
405426,526,558,606
405430,633,435,550
405434,576,407,439
405438,404,510,463
405442,374,578,554
405446,543,547,569
405450,639,496,466
405454,530,462,425
405458,394,532,472
405463,429,554,585
405467,593,476,593
405470,660,425,465
405474,530,502,404
405478,416,574,489
405482,481,563,594
405486,609,481,556
405490,618,434,447
405494,455,488,437
405498,358,580,529
405502,463,564,579
405507,615,479,536
405511,616,442,451
405515,472,548,444
405519,401,607,529
405523,518,520,589
405526,636,427,519
405530,563,460,417
405534,406,548,451
405538,411,586,560
405542,574,494,584
405547,659,420,472
405551,538,472,414
405555,363,578,479
405559,402,612,581
405563,592,491,587
405567,653,414,460
405571,522,482,418
405575,398,591,508
405579,478,568,601
405582,622,438,569
405586,603,397,441
405591,452,513,406
405595,371,617,515
405599,484,596,565
405603,630,475,521
405607,596,440,454
405611,448,548,470
405615,402,595,552
405619,529,531,570
405623,611,448,473
405627,528,480,406
405632,402,546,489
405636,422,569,590
405639,574,482,591
405643,631,436,472
405647,535,476,400
405651,414,584,490
405655,450,572,608
405659,612,469,584
405663,636,399,467
405667,485,491,393
405671,393,638,493
405676,477,573,622
405680,627,426,578
405684,592,421,427
405688,458,563,392
405692,411,598,560
405695,528,530,626
405699,631,430,529
405703,566,414,451
405707,383,517,482
405711,340,651,492
405715,555,630,541
405720,647,440,524
405724,534,398,463
405728,410,497,491
405732,434,584,551
405736,585,501,589
405740,640,403,487
405744,483,438,431
405748,378,555,502
405751,490,584,579
405755,630,524,520
405760,623,446,468
405764,479,485,456
405768,391,576,536
405772,490,560,600
405776,623,455,557
405780,585,432,441
405784,432,544,416
405788,383,615,524
405792,492,546,566
405796,631,422,519
405800,548,437,436
405805,389,545,457
405808,404,576,576
405812,557,482,597
405816,613,407,460
405820,523,480,399
405824,400,577,497
405828,458,638,566
405832,611,534,585
405836,621,424,471
405840,488,468,421
405844,384,567,522
405849,466,545,611
405853,600,450,533
405857,598,425,448
405861,446,517,436
405864,386,585,523
405868,506,538,593
405872,631,441,518
405876,579,437,411
405880,439,553,426
405884,416,594,579
405889,542,507,610
405893,624,418,503
405897,532,466,406
405901,412,573,463
405905,428,584,569
405909,573,490,571
405913,631,425,462
405917,511,491,410
405920,410,580,471
405924,469,576,588
405928,593,473,587
405933,587,392,488
405937,455,453,439
405941,395,558,524
405945,511,558,594
405949,640,474,520
405953,611,465,410
405957,452,556,424
405961,385,592,553
405965,498,519,605
405969,617,428,522
405974,548,465,407
405977,407,567,453
405981,426,610,543
405985,580,525,577
405989,631,446,473
405993,517,464,428
405997,387,531,501
406001,422,552,593
406005,574,476,600
406009,620,411,474
406013,497,467,422
406018,391,566,503
406022,473,558,598
406026,626,469,557
406029,620,417,450
406032,454,507,418
406036,382,599,519
406040,504,568,599
406044,630,494,497
406048,594,457,426
406052,440,513,462
406056,397,575,559
406061,497,535,581
406065,621,448,495
406069,539,445,426
406073,412,552,472
406077,434,577,569
406081,579,489,586
406084,645,453,459
406087,521,520,409
406091,395,564,508
406095,444,547,597
406099,581,450,601
406104,601,390,482
406108,470,480,424
406112,359,613,510
406116,427,624,554
406120,595,515,536
406124,573,413,456
406128,438,465,440
406132,405,556,536
406136,540,556,557
406139,649,450,517
406142,569,431,440
406147,399,506,484
406151,395,571,591
406155,550,559,568
406159,620,513,455
406163,516,495,431
406167,398,531,487
406171,434,554,570
406175,577,531,558
406179,623,469,475
406183,490,468,441
406188,380,534,519
406192,450,537,577
406195,596,521,536
406198,608,457,466
406202,482,441,466
406206,393,495,559
406210,483,486,604
406214,615,425,536
406218,581,428,421
406222,441,575,427
406226,412,638,563
406231,524,513,622
406235,620,399,532
406239,539,452,413
406243,397,608,422
406247,397,643,556
406250,546,494,599
406253,635,400,488
406257,506,438,433
406261,376,542,479
406265,419,600,548
406269,585,503,596
406274,629,406,481
406278,475,481,419
406282,358,591,499
406286,450,579,583
406290,594,486,541
406294,577,439,448
406298,425,487,439
406302,382,547,528
406305,525,541,567
406309,662,466,539
406313,577,465,432
406318,416,546,465
406322,389,577,567
406326,512,486,606
406330,615,406,511
406334,541,458,403
406338,410,592,452
406342,413,614,583
406346,551,524,604
406350,609,428,465
406354,491,450,413
406359,382,539,521
406362,443,553,617
406366,592,504,531
406370,591,435,427
406374,447,460,441
406378,375,539,531
406382,489,550,572
406386,622,489,511
406390,584,424,453
406394,428,503,430
406398,378,627,514
406403,497,594,576
406407,623,480,526
406411,555,436,423
406415,416,508,467
406418,418,555,568
406422,552,483,623
406426,605,419,500
406430,505,494,419
406434,396,590,483
406438,438,576,599
406443,583,475,587
406447,608,433,467
406451,463,504,414
406455,375,564,537
406459,430,528,606
406463,591,474,529
406467,592,509,408
406471,444,559,437
406474,374,579,523
406478,484,572,578
406482,616,444,521
406487,580,406,445
406491,427,502,458
406495,390,576,581
406499,532,495,618
406503,628,440,492
406507,526,551,377
406511,385,627,455
406515,408,571,626
406519,563,445,609
406523,629,389,485
406528,494,442,438
406531,353,563,489
406535,427,604,575
406539,602,524,549
406543,619,420,502
406547,471,466,433
406551,370,582,522
406555,454,548,593
406559,603,449,501
406563,581,476,392
406567,432,530,453
406572,388,546,588
406576,512,480,626
406580,632,409,510
406584,548,473,384
406587,393,675,401
406591,404,688,563
406595,559,489,626
406599,618,357,523
406603,508,406,444
406607,377,525,501
406611,423,560,605
406616,558,499,570
406620,581,430,436
406624,489,470,410
406628,399,582,442
406632,467,574,589
406636,608,474,570
406640,606,441,454
406643,451,511,453
406647,361,560,528
406651,486,528,597
406656,628,458,526
406660,588,437,437
406664,434,527,454
406668,387,573,548
406672,512,519,578
406676,615,453,489
406680,530,436,423
406684,372,535,475
406688,378,563,580
406692,556,487,614
406696,648,407,514
406700,522,445,423
406704,387,566,475
406708,444,611,561
406712,579,527,525
406716,577,445,463
406720,452,515,413
406724,378,589,530
406728,474,579,613
406732,620,486,533
406736,587,410,446
406740,423,527,435
406745,387,593,545
406749,502,541,595
406753,622,446,534
406756,566,400,458
406760,419,544,412
406764,406,620,555
406768,540,505,594
406772,616,438,478
406776,522,428,475
406780,381,521,486
406785,404,609,555
406789,521,555,528
406793,588,430,484
406797,497,442,462
406801,389,532,528
406805,469,552,606
406809,598,508,534
406812,596,457,475
406816,447,474,427
406820,376,545,536
406824,481,533,599
406829,623,479,514
406833,588,447,444
406837,432,509,454
406841,381,611,516
406845,525,548,597
406849,643,427,533
406853,563,427,451
406857,426,526,473
406861,416,585,564
406865,529,509,602
406868,602,445,460
406873,522,506,401
406877,383,569,496
406881,398,559,589
406885,552,504,565
406889,603,411,469
406893,489,455,410
406897,395,571,509
406901,457,559,595
406905,589,451,543
406909,601,455,395
406914,465,553,426
406918,381,579,566
406922,494,511,600
406925,624,446,466
406929,576,436,440
406933,416,516,479
406937,382,610,584
406941,510,532,624
406945,620,449,470
406949,557,486,416
406953,411,535,504
406958,407,542,618
406962,560,511,553
406966,617,450,455
406970,491,454,409
406974,364,546,475
406978,428,572,553
406981,597,499,541
406985,622,405,487
406989,479,494,429
406993,388,657,475
406998,482,643,596
407002,617,482,581
407006,595,396,464
407010,455,477,496
407014,404,539,570
407018,518,512,619
407022,619,497,486
407026,561,474,416
407030,424,496,486
407034,404,526,595
407037,541,467,612
407042,614,390,506
407046,482,441,411
407050,385,567,459
407054,436,588,581
407058,594,509,543
407062,620,482,415
407066,462,543,404
407070,366,616,511
407074,474,577,599
407078,611,500,561
407083,600,418,444
407087,458,448,452
407091,383,540,571
407094,490,592,539
407098,621,539,502
407102,578,409,475
407106,431,469,475
407110,405,541,567
407114,537,484,584
407118,635,444,521
407122,537,473,429
407127,382,541,465
407131,390,592,545
407135,539,499,591
407139,621,390,508
407143,500,425,426
407147,375,583,461
407150,418,639,568
407154,592,481,587
407158,632,398,475
407162,460,514,381
407166,379,685,462
407171,485,596,597
407175,630,405,586
407179,607,345,478
407183,448,440,463
407187,368,575,549
407191,494,561,604
407195,628,436,518
407199,564,453,408
407203,403,593,434
407206,377,579,584
407211,525,487,597
407215,616,436,474
407219,524,490,421
407223,415,571,489
407227,426,600,576
407231,581,505,583
407235,625,426,484
407239,484,461,427
407243,360,536,502
407247,453,574,547
407251,604,608,461
407256,611,562,403
407260,464,472,493
407263,386,488,575
407267,486,486,645
407271,609,420,569
407275,544,389,455
407279,397,509,449
407283,385,659,509
407287,542,565,586
407291,631,402,536
407296,539,388,442
407300,398,496,465
407304,395,571,547
407308,559,516,568
407312,649,432,505
407316,526,461,439
407319,371,573,510
407323,436,604,574
407327,611,548,503
407331,643,546,387
407335,489,533,418
407340,382,568,528
407344,452,545,607
407348,575,467,525
407352,576,453,395
407356,454,468,460
407360,390,527,584
407364,487,502,614
407368,569,414,540
407372,541,417,451
407375,422,516,448
407379,420,605,549
407384,563,602,572
407388,645,544,447
407392,520,493,455
407396,375,546,476
407400,424,561,589
407404,586,501,532
407408,622,465,423
407412,498,483,440
407416,389,563,510
407420,451,551,623
407425,606,438,596
407429,612,376,477
407432,461,479,416
407436,382,614,495
407440,491,587,618
407444,615,468,572
407448,582,403,460
407452,421,488,434
407456,372,602,533
407460,514,531,585
407464,638,409,523
407469,556,434,420
407473,381,565,436
407477,385,605,571
407481,541,502,599
407485,626,402,494
407488,532,437,410
407492,385,594,455
407496,417,630,580
407500,590,519,552
407504,641,474,419
407508,493,493,474
407513,387,594,515
407517,457,597,609
407521,614,446,572
407525,618,378,470
407529,462,483,456
407533,374,607,507
407537,502,549,566
407541,638,420,523
407544,576,406,416
407548,432,512,470
407553,379,602,537
407557,502,664,481
407561,610,512,506
407565,543,410,473
407569,409,467,499
407573,413,534,564
407577,557,474,609
407581,622,401,491
407585,507,462,408
407589,341,597,473
407593,398,611,578
407598,608,512,585
407601,658,475,450
407605,500,505,418
407609,393,540,548
407613,454,508,620
407617,584,448,549
407621,585,429,437
407625,446,491,433
407629,389,579,537
407633,512,532,626
407638,657,432,515
407642,596,463,381
407646,424,562,437
407650,385,589,568
407654,496,504,598
407657,599,404,501
407661,530,474,392
407665,394,569,469
407669,427,593,570
407673,585,504,574
407677,634,448,452
407682,487,502,423
407686,363,609,496
407690,427,620,589
407694,627,485,561
407698,630,399,460
407702,481,468,439
407706,397,564,544
407709,507,560,618
407713,612,454,553
407717,546,401,438
407721,405,500,454
407726,407,607,544
407730,553,571,555
407734,651,465,496
407738,559,451,429
407742,410,541,478
407746,385,614,583
407750,520,521,584
407754,589,441,461
407758,516,469,441
407762,404,548,503
407766,446,568,568
407770,592,467,573
407774,620,392,476
407778,475,464,431
407782,359,588,507
407786,462,626,569
407790,614,484,541
407794,618,394,456
407798,470,494,447
407802,388,615,511
407806,511,616,586
407811,631,501,510
407815,584,432,412
407819,421,508,444
407822,381,577,559
407826,511,523,574
407830,613,452,514
407834,533,431,457
407838,406,535,478
407842,419,584,604
407846,561,508,600
407851,616,409,478
407855,480,449,390
407859,373,567,500
407863,452,576,623
407867,596,466,577
407871,604,407,460
407875,461,501,412
407878,372,603,512
407882,499,564,589
407886,639,461,514
407890,585,500,394
407895,417,606,415
407899,381,607,591
407903,526,516,623
407907,644,433,489
407911,550,469,429
407915,398,521,499
407919,385,540,604
407923,530,486,598
407927,629,494,439
407931,536,594,364
407934,397,580,510
407939,419,512,613
407943,571,410,572
407947,619,389,466
407951,491,466,448
407955,391,574,491
407959,465,563,581
407963,617,466,547
407967,598,410,446
407971,449,491,436
407975,372,617,504
407980,499,648,539
407984,625,476,540
407988,575,411,447
407991,424,609,356
407995,393,668,549
407999,523,494,673
408003,629,350,610
408007,546,367,476
408011,386,522,431
408015,384,652,597
408019,555,561,580
408024,642,429,468
408028,514,425,421
408032,398,524,476
408036,449,521,584
408040,599,428,531
408044,616,430,403
408047,462,523,407
408051,374,590,532
408055,462,515,631
408059,614,397,562
408064,585,375,432
408068,442,476,438
408072,394,600,523
408076,523,627,592
408080,640,531,484
408084,548,481,416
408088,416,495,480
408092,397,516,590
408096,548,469,585
408100,640,451,457
408103,527,487,419
408108,368,590,502
408112,389,558,617
408116,537,423,575
408120,612,382,419
408124,512,481,404
408128,417,577,498
408132,476,550,615
408136,613,436,554
408140,596,418,407
408144,464,514,428
408148,394,641,497
408153,513,615,619
408157,637,446,597
408160,583,396,485
408164,418,480,457
408168,382,594,526
408172,503,535,595
408176,597,417,511
408180,536,443,432
408184,394,556,426
408188,413,667,509
408193,571,544,591
408197,632,393,502
408201,516,425,437
408205,374,553,478
408209,435,555,581
408213,592,454,548
408216,624,490,403
408220,501,663,351
408224,391,613,584
408228,471,473,668
408232,595,382,555
408237,588,488,352
408241,462,524,464
408245,405,520,600
408249,519,477,636
408253,636,389,544
408257,545,417,436
408261,397,549,444
408265,406,620,552
408269,552,527,571
408272,630,435,496
408276,532,474,428
408281,395,548,471
408285,411,598,586
408289,563,510,597
408293,624,416,468
408297,510,453,417
408301,386,548,509
408305,469,570,611
408309,611,499,580
408313,602,415,477
408317,447,450,447
408322,377,543,526
408326,495,548,569
408329,639,523,493
408333,586,462,431
408337,424,492,468
408341,394,543,546
408345,507,502,597
408349,600,469,495
408353,549,563,380
408357,395,607,474
408361,405,563,612
408366,540,464,642
408370,632,427,495
408374,540,507,389
408378,408,556,489
408382,439,534,596
408385,582,437,583
408389,622,384,483
408393,497,459,420
408397,392,572,481
408401,472,593,564
408406,624,492,534
408410,620,440,439
408414,455,511,413
408418,384,591,519
408422,498,560,575
408426,621,465,495
408430,572,474,394
408434,413,566,458
408438,377,618,571
408441,521,601,583
408445,607,530,517
408450,517,457,440
408454,367,509,470
408458,406,565,543
408462,572,485,586
408466,642,400,472
408470,535,465,428
408474,404,554,514
408478,453,549,618
408482,601,490,579
408486,601,466,421
408491,465,500,430
408495,385,576,533
408498,497,596,564
408502,636,545,477
408506,603,496,434
408510,445,499,471
408514,390,529,571
408518,488,501,591
408522,618,472,477
408526,566,519,419
408530,411,549,465
408535,374,540,590
408539,540,456,612
408543,646,389,495
408547,553,457,422
408551,419,587,472
408554,441,599,577
408558,570,526,555
408562,620,452,450
408566,492,482,399
408570,398,572,502
408574,467,548,611
408579,606,495,511
408583,606,467,457
408587,432,480,480
408591,353,531,569
408595,481,511,615
408599,622,437,535
408603,597,435,437
408607,434,531,436
408610,396,625,523
408614,526,555,614
408619,634,415,508
408623,563,444,402
408627,411,529,457
408631,423,567,560
408635,558,514,583
408639,617,440,470
408643,503,493,398
408647,395,590,494
408651,448,552,612
408655,586,446,605
408659,597,399,470
408664,467,505,400
408667,397,608,506
408671,476,596,598
408675,613,469,564
408679,575,412,427
408683,435,504,446
408687,401,605,575
408691,512,554,577
408695,644,439,491
408699,576,445,379
408704,406,538,433
408708,396,584,569
408712,538,508,551
408716,630,413,497
408720,552,435,421
408723,405,541,470
408727,413,575,569
408731,551,511,563
408735,611,483,454
408739,499,549,406
408743,398,594,513
408748,461,561,623
408752,606,456,605
408756,618,408,478
408760,444,472,424
408764,353,555,524
408768,490,532,563
408772,641,460,500
408776,604,462,413
408779,448,554,412
408783,393,636,513
408787,479,569,621
408792,599,434,541
408796,543,408,448
408800,426,493,463
408804,432,558,564
408808,571,494,585
408812,629,439,466
408816,521,486,413
408820,391,564,480
408824,411,586,569
408828,567,512,539
408833,636,445,473
408836,505,497,457
408840,387,571,529
408844,460,552,593
408848,597,464,553
408852,584,418,440
408856,441,524,416
408860,381,603,499
408864,496,538,606
408868,633,446,537
408872,592,429,466
408877,426,497,471
408881,385,596,528
408885,518,568,582
408889,635,437,523
408892,547,447,404
408896,411,547,482
408900,433,558,608
408904,584,477,593
408908,639,455,427
408912,504,469,450
408916,382,550,502
408921,440,588,588
408925,598,508,579
408929,614,419,452
408933,467,462,417
408937,368,562,497
408941,478,591,558
408945,623,564,510
408948,598,507,458
408952,443,506,467
408956,378,534,570
408961,518,474,616
408965,643,375,532
408969,558,400,407
408973,384,543,412
408977,391,619,544
408981,551,525,596
408985,651,421,519
408989,546,443,450
408993,396,542,470
408997,420,601,564
409001,581,518,543
409005,641,417,507
409009,511,457,437
409013,399,589,487
409017,482,638,581
409021,617,511,568
409025,597,411,465
409029,438,458,441
409033,372,553,499
409037,496,548,588
409041,619,452,521
409046,582,453,414
409050,435,534,432
409054,384,587,538
409058,519,533,607
409061,623,429,527
409065,566,435,445
409069,408,536,488
409073,403,576,582
409077,539,493,558
409081,621,436,450
409085,517,497,392
409090,397,625,461
409094,453,619,564
409098,605,499,568
409102,619,400,470
409106,472,440,430
409110,385,539,515
409113,475,554,593
409116,612,457,549
409120,597,419,456
409124,420,503,436
409128,382,600,528
409133,528,589,562
409137,637,505,492
409141,555,474,414
409145,422,528,468
409149,428,565,582
409153,572,487,598
409157,657,433,481
409161,532,465,389
409165,382,545,491
409168,413,579,606
409171,578,520,585
409176,638,447,479
409180,510,467,428
409184,386,556,497
409188,467,576,594
409192,618,502,542
409196,608,420,423
409200,452,477,411
409204,346,558,502
409208,446,537,587
409212,628,471,517
409217,586,430,446
409221,427,544,422
409224,407,646,557
409227,535,543,613
409231,648,430,477
409235,567,548,335
409239,404,610,448
409243,399,523,624
409247,571,434,632
409251,652,409,508
409255,531,425,459
409260,395,506,507
409264,440,544,601
409268,602,475,592
409272,643,405,479
409276,492,475,417
409279,370,589,510
409282,434,564,609
409286,598,454,553
409290,568,427,417
409294,438,531,400
409298,391,613,525
409303,488,542,607
409307,600,427,524
409311,573,435,422
409315,445,562,419
409319,423,638,530
409323,548,552,585
409327,651,409,497
409331,539,417,425
409334,394,536,500
409337,427,578,585
409341,566,510,570
409346,625,443,498
409350,518,480,430
409354,394,578,483
409358,439,574,608
409362,591,483,568
409366,620,405,471
409370,476,484,443
409374,373,588,526
409378,451,567,579
409382,597,465,530
409387,597,452,415
409390,434,563,437
409394,399,626,552
409398,534,541,580
409402,644,418,518
409406,549,415,452
409410,408,551,455
409414,419,607,575
409418,576,507,592
409422,672,416,498
409426,556,464,415
409431,392,580,476
409435,423,624,568
409439,578,530,573
409443,614,413,482
409446,478,459,448
409450,373,564,525
409454,443,575,586
409458,575,483,542
409462,595,434,449
409466,449,531,425
409470,358,591,529
409475,490,562,584
409479,656,443,544
409483,623,437,420
409487,432,545,432
409491,367,605,552
409495,529,497,613
409499,664,384,538
409502,567,423,429
409506,410,551,480
409510,410,591,559
409515,563,497,547
409519,647,418,487
409523,525,486,412
409527,377,622,462
409531,428,640,608
409535,578,491,591
409539,609,418,451
409543,454,529,408
409547,352,611,523
409551,459,530,618
409555,619,408,560
409559,616,432,410
409563,459,600,387
409567,402,612,577
409571,514,494,634
409575,620,386,543
409579,556,433,413
409583,411,578,439
409587,415,610,585
409591,564,512,602
409595,642,400,512
409600,537,437,433
409604,391,553,469
409608,406,594,570
409612,560,493,574
409615,591,415,459
409619,453,512,410
409623,347,614,487
409627,424,573,592
409631,578,474,552
409635,599,410,458
409639,445,492,434
409644,363,577,544
409648,466,519,622
409652,596,405,547
409656,557,403,444
409660,416,538,432
409664,396,616,538
409668,518,547,584
409671,602,439,478
409675,541,478,419
409679,414,639,441
409683,416,623,574
409688,559,504,549
409692,622,402,469
409696,516,429,459
409700,386,560,526
409704,428,608,569
409708,581,504,502
409712,612,466,386
409716,477,530,412
409720,365,586,559
409724,455,529,650
409728,607,427,571
409732,604,391,459
409736,452,469,461
409740,380,563,550
409744,476,538,590
409748,618,445,504
409752,588,427,435
409756,434,564,441
409760,410,628,560
409764,557,505,638
409768,649,383,536
409773,533,409,442
409777,393,544,481
409781,422,594,569
409784,566,531,550
409787,636,447,479
409791,492,489,410
409795,334,591,491
409799,405,594,591
409803,597,469,583
409807,624,389,482
409811,479,482,440
409816,413,614,502
409820,517,598,559
409824,635,483,529
409828,606,402,464
409832,443,495,446
409836,376,605,545
409840,507,580,596
409843,636,432,524
409847,569,420,414
409851,431,559,435
409856,425,618,589
409860,559,512,607
409864,637,408,503
409868,522,445,417
409872,363,538,499
409876,390,561,593
409880,571,474,590
409884,653,433,451
409888,524,506,432
409892,396,592,522
409896,479,587,613
409900,608,472,567
409904,616,423,444
409908,475,516,425
409912,378,594,534
409916,482,554,591
409920,636,451,523
409924,586,444,413
409928,435,560,411
409932,407,602,549
409936,548,499,574
409940,650,412,511
409945,556,454,424
409949,399,554,494
409953,409,584,589
409956,553,484,617
409960,603,403,493
409964,498,461,424
409968,361,572,490
409972,425,589,570
409976,584,511,541
409980,616,462,454
409985,510,504,444
409989,422,585,520
409993,505,574,575
409997,631,459,533
410001,588,412,455
410005,431,507,437
410009,383,592,538
410012,515,519,609
410016,648,387,528
410020,570,402,413
410024,404,546,476
410029,381,619,556
410033,556,556,583
410037,646,410,499
410041,537,424,438
410045,372,556,489
410049,392,585,585
410053,583,495,556
410057,652,428,436
410061,506,491,419
410065,369,589,509
410068,465,586,594
410073,606,453,568
410077,629,389,464
410081,482,495,450
410085,388,603,534
410089,491,547,606
410093,623,427,558
410097,588,439,426
410101,442,565,389
410105,414,669,512
410109,546,559,602
410114,655,415,528
410118,566,423,438
410122,394,538,471
410125,385,582,578
410129,554,493,569
410133,642,404,468
410137,534,452,421
410141,406,576,500
410145,428,589,589
410149,571,479,569
410153,611,422,438
410158,493,516,416
410162,407,595,528
410166,491,555,591
410170,622,455,548
410174,609,410,438
410178,462,501,444
410181,380,616,528
410185,490,590,573
410189,606,473,528
410193,567,453,410
410198,424,536,447
410202,400,557,573
410206,524,478,601
410210,607,401,489
410214,544,450,416
410218,427,562,477
410222,439,598,571
410226,567,499,566
410230,613,414,493
410234,498,458,436
410237,405,573,508
410242,466,592,588
410246,615,492,540
410250,632,432,445
410254,459,515,418
410258,358,609,504
410262,478,572,589
410266,639,472,527
410270,601,446,425
410274,435,536,452
410278,372,601,535
410283,513,543,580
410287,637,420,501
410291,558,412,418
410294,400,526,456
410298,387,591,551
410302,553,530,567
410306,646,472,449
410310,523,498,376
410314,379,590,477
410318,431,593,613
410322,599,448,613
410327,643,381,497
410331,499,468,427
410335,387,574,502
410339,451,549,595
410343,602,441,542
410347,611,405,433
410350,470,508,432
410353,396,603,529
410357,511,543,605
410361,633,425,531
410365,578,415,437
410370,418,540,434
410374,394,645,542
410378,544,566,571
410382,642,439,510
410386,555,452,403
410390,399,600,440
410394,394,615,570
410398,535,476,589
410402,619,365,510
410405,523,436,431
410408,388,579,493
410413,446,589,595
410417,605,472,566
410421,628,397,471
410425,482,482,437
410429,389,623,509
410433,494,620,578
410437,639,475,547
410441,602,415,435
410445,423,490,438
410449,370,568,535
410454,509,548,583
410458,640,488,501
410462,570,444,449
410465,409,501,490
410469,405,539,581
410473,561,463,588
410477,661,390,492
410481,537,448,437
410485,338,577,481
410489,379,606,559
410493,592,507,584
410498,674,419,500
410502,529,475,453
410506,387,593,507
410510,454,603,589
410514,596,480,539
410518,590,414,439
410521,456,485,424
410525,401,581,524
410529,512,551,580
410533,644,465,520
410537,593,431,427
410542,435,543,411
410546,395,677,483
410550,531,573,606
410554,646,392,528
410558,563,393,441
410562,408,508,478
410566,383,560,571
410570,555,481,588
410574,642,408,512
410577,499,482,416
410582,351,624,463
410586,434,617,571
410590,610,485,557
410594,635,426,464
410598,487,484,457
410602,375,589,517
410606,479,577,568
410610,632,470,524
410614,609,429,440
410618,451,512,431
410622,393,611,527
410627,509,528,609
410631,642,394,543
410634,595,415,425
410638,422,530,461
410642,384,586,570
410646,537,512,605
410650,652,429,500
410654,542,484,401
410658,387,587,470
410662,409,591,588
410667,542,479,584
410671,593,404,487
410675,483,462,435
410679,362,587,494
410683,448,609,582
410687,622,490,555
410690,654,432,435
410694,496,532,408
410698,385,621,504
410702,474,562,598
410706,614,440,558
410711,598,424,428
410715,433,521,436
410719,391,579,538
410723,526,513,579
410727,639,426,534
410731,553,453,444
410735,405,557,437
410739,411,628,540
410743,568,523,611
410746,643,404,506
410750,522,434,429
410755,345,545,480
410759,378,571,592
410763,584,483,585
410767,650,429,447
410771,504,537,384
410775,387,641,495
410779,478,590,598
410783,638,474,560
410787,620,396,448
410791,437,479,426
410796,355,571,542
410800,484,527,620
410803,624,431,540
410807,593,422,449
410811,431,520,467
410815,403,595,550
410819,542,558,559
410823,643,478,478
410827,565,460,410
410831,407,557,443
410835,408,581,581
410840,562,463,605
410844,628,382,506
410848,500,457,421
410852,374,636,443
410856,425,652,584
410859,583,477,590
410863,609,390,480
410867,464,470,412
410871,387,585,505
410875,490,546,618
410880,646,435,577
410884,627,412,450
410888,448,514,428
410892,381,619,503
410896,506,582,577
410900,642,437,522
410904,584,421,438
410908,413,532,466
410912,369,634,544
410915,535,537,600
410919,653,397,506
410924,545,425,428
410928,396,533,481
410932,426,567,591
410936,564,477,580
410940,626,406,473
410944,503,463,426
410948,384,574,508
410952,454,587,597
410956,620,494,522
410960,631,439,432
410964,474,495,413
410969,369,581,529
410972,475,550,592
410975,637,490,519
410979,603,460,446
410983,445,514,467
410987,392,570,574
410991,536,542,590
410995,645,457,494
410999,551,446,428
411003,398,515,468
411008,399,560,563
411012,541,500,571
411016,644,425,472
411020,526,458,418
411024,395,560,482
411028,435,583,584
411032,581,498,568
411036,591,449,441
411040,453,528,394
411044,384,620,496
411048,475,600,586
411053,643,540,496
411057,642,468,456
411061,467,475,464
411065,392,536,563
411069,508,507,597
411073,640,427,524
411077,565,444,425
411081,420,557,435
411084,392,608,564
411087,533,515,599
411091,625,406,502
411096,531,433,439
411100,403,566,463
411104,409,635,558
411108,566,518,585
411112,633,403,487
411116,486,486,429
411120,349,598,497
411124,428,598,567
411128,590,466,578
411132,615,392,445
411137,489,458,434
411141,406,550,527
411144,499,529,604
411148,641,432,538
411152,609,435,415
411156,444,559,420
411160,384,614,545
411164,513,542,576
411168,644,435,520
411172,570,412,447
411176,409,514,477
411181,405,591,573
411185,548,523,596
411189,631,425,489
411193,503,470,397
411197,374,624,451
411200,407,645,563
411204,579,490,590
411208,655,402,466
411212,527,459,442
411216,393,564,531
411220,450,550,589
411225,609,453,524
411229,616,463,392
411233,461,569,408
411237,380,609,564
411241,507,525,631
411245,650,425,552
411249,597,425,444
411253,413,531,443
411256,369,607,555
411260,518,535,603
411265,650,421,511
411269,562,447,400
411273,399,563,462
411277,402,576,588
411281,554,463,617
411285,621,384,499
411289,498,451,411
411293,374,571,477
411297,435,575,580
411301,602,480,562
411305,616,431,441
411310,474,494,420
411313,365,572,520
411317,467,561,583
411321,628,460,539
411325,617,443,443
411329,453,529,429
411333,382,625,523
411337,514,565,592
411341,645,430,548
411345,568,410,456
411350,397,503,474
411354,385,568,558
411358,547,501,578
411362,649,411,501
411366,537,449,426
411369,375,583,467
411373,399,629,552
411377,576,510,549
411381,638,432,465
411385,492,529,410
411389,358,603,523
411394,433,556,611
411398,599,456,532
411402,611,395,392
411406,449,473,401
411410,356,579,538
411414,484,556,611
411418,649,457,545
411422,600,448,423
411425,417,579,415
411429,364,614,576
411433,521,527,627
411438,655,408,536
411442,547,413,447
411446,367,530,475
411450,373,573,578
411454,544,502,567
411458,619,437,474
411462,509,471,435
411466,352,588,482
411470,409,587,594
411474,635,452,589
411479,696,375,483
411482,498,451,429
411486,335,630,455
411490,451,661,547
411494,673,472,566
411498,660,386,467
411502,425,488,427
411506,317,565,544
411510,494,517,606
411514,694,415,524
411518,615,417,435
411523,378,543,448
411527,332,663,526
411531,548,573,597
411535,703,420,529
411538,561,417,446
411542,335,526,488
411546,354,570,585
411550,597,491,587
411554,700,418,478
411558,512,474,410
411563,322,593,475
411567,414,597,596
411571,653,494,584
411575,681,425,454
411579,449,487,418
411583,303,590,507
411587,460,623,528
411591,684,549,483
411594,641,441,462
411598,400,481,478
411602,318,550,565
411607,516,508,597
411611,701,425,513
411615,592,435,428
411619,358,529,453
411623,342,579,568
411627,568,512,594
411631,706,432,495
411635,542,462,411
411639,329,563,471
411643,382,588,574
411648,621,501,574
411651,695,429,468
411655,488,472,422
411659,310,567,502
411663,425,564,586
411667,663,467,548
411671,663,420,442
411675,433,488,422
411679,316,569,517
411683,487,544,582
411687,691,455,523
411692,620,437,424
411696,381,520,437
411700,324,584,546
411704,538,530,582
411707,708,438,487
411711,576,443,409
411715,346,533,467
411719,359,575,569
411723,594,503,578
411727,700,427,479
411731,514,464,418
411736,318,558,486
411740,400,573,581
411744,639,488,559
411748,683,426,435
411752,468,479,406
411756,317,568,498
411760,455,548,561
411763,677,455,547
411767,652,420,447
411771,416,494,437
411776,317,569,535
411780,506,534,585
411784,698,444,507
411788,607,438,409
411792,368,524,419
411796,335,575,526
411800,558,508,577
411804,705,421,495
411808,553,444,415
411812,335,543,467
411816,372,576,557
411820,608,499,549
411824,693,428,471
411828,500,474,428
411832,316,564,498
411836,420,565,583
411840,653,479,548
411844,667,432,440
411848,443,497,417
411852,316,577,513
411856,477,555,588
411860,686,466,529
411865,632,441,426
411869,398,514,431
411873,324,574,534
411876,525,527,582
411880,700,444,503
411884,584,449,420
411888,357,536,451
411892,352,578,551
411896,582,517,567
411900,703,437,466
411905,532,464,398
411909,330,553,463
411913,392,570,567
411917,627,496,557
411921,682,438,448
411925,474,484,404
411929,310,570,495
411932,437,564,583
411936,661,478,542
411940,653,440,436
411944,425,505,426
411949,320,580,531
411953,494,550,594
411957,692,464,524
411961,614,448,429
411965,381,527,447
411969,337,582,552
411973,552,531,586
411977,703,452,494
411981,562,466,414
411985,343,554,466
411988,367,584,573
411993,598,514,579
411997,695,444,473
412001,507,483,426
412005,320,574,499
412009,407,579,589
412013,637,497,566
412017,668,446,456
412021,454,501,422
412025,315,580,515
412029,459,561,594
412034,671,476,538
412038,636,449,434
412042,406,524,435
412045,326,590,544
412049,514,551,593
412053,688,465,511
412057,591,458,419
412061,366,536,451
412065,348,581,560
412069,563,521,585
412073,694,443,490
412078,540,466,416
412082,337,555,479
412086,385,578,582
412090,610,509,576
412094,676,450,471
412098,486,494,424
412101,324,579,510
412105,436,576,599
412109,650,491,561
412113,650,449,457
412118,437,511,438
412122,331,583,538
412126,490,558,606
412130,675,475,541
412134,612,457,443
412138,398,535,456
412142,349,594,564
412146,535,540,605
412150,679,454,516
412154,562,462,431
412157,360,552,476
412162,371,591,580
412166,579,524,593
412170,675,453,495
412174,513,483,433
412178,343,567,496
412182,411,580,592
412186,616,500,573
412190,655,448,466
412194,464,502,427
412198,334,582,515
412203,457,569,594
412207,653,483,550
412211,628,452,447
412214,422,518,439
412218,340,588,542
412222,505,555,596
412226,672,471,520
412230,594,468,427
412234,385,552,449
412238,359,603,557
412242,557,544,587
412247,684,460,494
412251,544,476,414
412255,351,564,471
412259,391,590,578
412263,607,518,579
412267,679,453,476
412270,497,492,423
412274,334,574,502
412278,428,574,595
412282,644,491,565
412286,656,447,456
412291,449,507,436
412295,328,581,537
412299,474,560,612
412303,672,478,555
412307,623,456,454
412311,403,526,453
412315,338,586,562
412319,528,545,611
412323,688,462,527
412326,576,462,440
412329,363,544,480
412334,366,585,583
412338,579,520,600
412342,687,446,507
412346,527,475,434
412350,340,560,492
412354,402,579,592
412358,620,505,583
412362,671,446,473
412366,475,491,430
412370,325,575,516
412375,437,566,601
412379,651,480,561
412382,649,444,462
412385,433,515,440
412389,330,587,538
412393,496,553,608
412397,685,465,537
412401,610,451,438
412405,387,531,456
412409,344,588,563
412413,547,535,600
412418,697,450,511
412422,565,461,430
412426,351,549,481
412430,374,584,589
412434,594,513,586
412438,687,442,481
412441,506,478,426
412445,330,566,499
412449,416,573,597
412453,641,492,572
412457,670,441,463
412462,458,498,437
412466,321,579,534
412470,458,565,608
412474,672,478,546
412478,636,446,444
412482,409,514,445
412486,332,578,550
412490,517,545,605
412494,691,466,528
412497,592,464,435
412502,369,541,464
412506,351,585,571
412510,568,529,595
412514,698,454,499
412518,544,469,423
412522,340,550,482
412526,388,575,587
412530,618,507,580
412534,688,445,471
412538,491,482,421
412542,324,563,503
412547,430,561,593
412551,651,482,556
412554,655,441,447
412558,435,502,438
412562,323,581,534
412566,489,557,594
412570,687,474,526
412574,625,451,425
412578,399,519,441
412582,340,575,550
412587,539,534,594
412591,696,459,507
412595,573,462,421
412599,357,537,464
412603,368,575,574
412607,590,518,588
412610,693,449,489
412614,519,476,429
412618,327,556,494
412622,400,565,593
412626,631,490,572
412631,673,436,463
412635,467,484,429
412639,316,565,519
412643,450,554,600
412647,666,473,551
412651,644,443,448
412655,418,508,442
412659,326,575,549
412663,507,542,610
412666,687,461,535
412670,597,450,434
412675,373,527,456
412679,344,578,567
412683,556,524,598
412687,695,446,506
412691,552,462,424
412695,343,545,478
412699,379,575,584
412703,604,507,578
412707,687,441,469
412711,499,480,416
412716,322,567,500
412720,423,572,593
412723,647,485,557
412727,663,435,447
412731,447,493,424
412735,325,569,521
412739,475,547,594
412743,670,460,536
412747,621,439,434
412751,402,516,444
412755,337,579,549
412760,525,535,600
412764,682,452,512
412768,573,452,420
412772,365,541,465
412776,364,584,569
412779,571,520,591
412783,679,446,496
412787,527,472,426
412791,345,558,491
412795,405,575,594
412800,620,500,582
412804,671,444,471
412808,479,490,428
412812,331,574,514
412816,449,564,602
412820,651,475,559
412824,639,436,455
412828,432,502,436
412832,336,573,533
412835,493,543,595
412839,672,458,526
412844,603,443,431
412848,391,523,451
412852,353,576,554
412856,545,523,590
412860,680,445,501
412864,556,457,418
412868,361,544,470
412872,384,577,578
412876,593,508,589
412880,673,440,487
412884,503,476,426
412889,336,561,495
412892,419,566,590
412896,628,484,569
412900,652,435,459
412904,457,491,428
412908,328,571,520
412912,461,550,596
412916,656,461,545
412920,622,435,444
412924,406,511,441
412929,331,578,546
412933,514,537,596
412937,685,452,517
412941,583,447,425
412945,367,527,458
412948,351,576,568
412952,565,520,591
412956,694,445,495
412960,538,465,418
412964,341,550,477
412968,390,573,581
412973,617,498,578
412977,687,433,472
412981,493,481,424
412985,325,568,507
412989,433,565,597
412993,654,482,559
412997,657,438,451
413001,435,500,437
413004,316,577,535
413008,480,551,610
413012,676,463,539
413017,615,442,427
413021,391,517,443
413025,337,574,549
413029,531,527,592
413033,686,447,509
413037,569,455,422
413041,358,538,463
413045,368,575,570
413049,585,508,582
413053,683,435,481
413058,516,468,420
413061,335,557,491
413065,409,571,587
413069,631,492,569
413073,673,437,462
413077,470,491,428
413081,325,571,510
413085,453,558,592
413089,660,474,544
413093,637,442,438
413097,419,506,432
413102,330,573,536
413106,505,538,596
413110,680,451,523
413114,597,441,427
413117,382,523,455
413121,355,575,559
413125,551,520,588
413129,679,445,500
413133,546,459,420
413137,355,543,468
413142,390,571,571
413146,601,501,571
413150,672,438,473
413154,499,479,416
413158,336,562,494
413162,431,568,589
413166,633,488,560
413170,645,439,454
413173,451,491,430
413176,337,566,526
413180,480,547,601
413185,663,466,542
413189,615,443,435
413193,409,513,441
413197,347,576,548
413201,525,535,595
413205,674,450,516
413209,573,450,427
413213,371,532,463
413217,367,572,571
413221,567,512,589
413225,680,439,489
413230,531,464,423
413233,352,551,483
413237,407,569,584
413241,615,494,573
413245,665,436,465
413249,478,478,420
413253,337,560,507
413257,448,555,593
413261,648,476,552
413265,635,437,448
413270,429,502,434
413274,341,573,532
413278,499,543,595
413282,669,455,530
413286,600,445,435
413289,397,525,446
413293,359,581,554
413297,543,529,589
413301,674,444,499
413305,554,452,418
413309,366,537,467
413314,388,573,578
413318,587,505,580
413322,665,434,475
413326,503,469,417
413330,346,556,488
413334,426,566,584
413338,623,486,561
413342,646,432,453
413345,461,489,423
413349,346,569,523
413353,470,550,593
413358,648,461,540
413362,613,435,438
413366,416,508,438
413370,347,575,543
413374,510,535,596
413378,661,448,516
413382,572,443,423
413386,380,527,459
413390,368,577,564
413394,561,519,587
413399,672,440,491
413402,539,457,417
413406,365,542,479
413410,408,567,580
413414,601,498,574
413418,656,436,467
413422,491,477,419
413426,351,559,500
413430,446,560,590
413434,636,479,556
413438,636,438,446
413443,447,501,423
413447,349,573,523
413451,488,548,595
413455,656,463,534
413458,600,441,433
413462,402,516,448
413466,358,576,552
413470,531,530,592
413474,668,446,506
413478,560,454,424
413483,369,538,464
413487,378,572,568
413491,576,508,582
413495,670,440,482
413499,520,467,417
413503,356,552,486
413507,421,566,582
413511,616,491,560
413514,651,438,452
413518,473,484,418
413522,352,562,507
413527,470,551,588
413531,652,472,544
413535,626,438,437
413539,431,502,425
413543,356,572,532
413547,509,541,595
413551,665,459,519
413555,586,446,428
413559,391,525,456
413563,367,575,561
413568,550,522,596
413571,670,445,503
413575,544,457,417
413579,363,537,474
413583,398,567,581
413587,595,497,580
413591,660,432,473
413595,496,471,419
413599,347,555,498
413603,431,562,594
413607,625,484,559
413612,638,439,448
413616,456,495,427
413620,351,570,526
413624,477,550,602
413627,648,466,536
413631,609,443,428
413635,417,511,438
413639,359,570,547
413643,523,531,599
413647,663,450,513
413651,568,453,422
413656,386,536,460
413660,382,578,565
413664,566,518,587
413668,665,441,490
413672,525,463,423
413676,359,548,488
413680,410,570,590
413683,604,498,575
413687,652,441,470
413691,482,485,425
413696,352,564,507
413700,454,558,591
413704,636,475,552
413708,625,437,446
413712,441,501,429
413716,356,570,529
413720,494,543,592
413724,650,458,524
413728,594,442,425
413732,406,519,446
413736,373,577,556
413740,544,526,595
413744,665,446,508
413748,552,455,428
413752,376,540,472
413756,395,575,575
413760,583,510,585
413764,658,440,487
413768,507,472,423
413772,359,557,496
413776,432,564,590
413780,619,488,564
413785,639,436,458
413789,459,486,427
413793,351,564,521
413796,475,550,589
413800,647,468,538
413804,614,437,435
413808,426,500,433
413812,363,565,536
413816,517,531,593
413820,658,452,521
413825,577,451,427
413829,395,531,456
413833,380,575,557
413837,561,517,584
413841,668,443,490
413845,538,463,418
413849,370,548,479
413852,406,571,582
413856,600,501,574
413860,659,440,472
413864,494,480,423
413869,357,560,507
413873,446,558,594
413877,632,475,557
413881,632,433,450
413885,448,491,428
413889,353,564,530
413893,488,542,603
413897,653,460,529
413901,596,441,429
413905,406,513,443
413908,362,569,552
413913,532,525,591
413917,662,443,502
413921,559,448,419
413925,380,532,463
413929,391,572,571
413933,575,510,585
413937,660,439,483
413941,514,468,421
413945,356,552,489
413949,425,565,588
413954,615,489,565
413958,651,432,456
413962,477,481,424
413965,353,564,514
413969,463,554,592
413973,641,469,544
413977,621,435,438
413981,431,504,436
413985,354,574,539
413989,502,539,597
413993,655,455,521
413998,583,447,425
414002,395,524,452
414006,374,576,559
414010,551,523,586
414014,667,443,492
414018,546,461,420
414021,371,547,472
414025,402,575,577
414029,591,506,579
414033,656,440,472
414038,497,477,418
414042,355,559,498
414046,441,563,594
414050,626,482,563
414054,638,436,454
414058,458,495,430
414062,355,573,528
414066,484,550,601
414070,649,463,543
414074,605,438,435
414077,419,513,442
414082,363,576,545
414086,524,535,593
414090,660,451,508
414094,569,449,418
414098,385,532,460
414102,382,575,570
414106,565,511,584
414110,661,437,481
414114,524,462,417
414118,363,544,485
414123,417,566,587
414127,606,495,574
414131,651,439,464
414134,482,484,423
414138,351,565,508
414142,456,559,595
414146,637,477,555
414150,626,439,446
414154,439,503,432
414158,355,574,536
414162,497,544,598
414167,654,459,530
414171,591,445,432
414175,399,523,448
414179,367,576,553
414183,543,525,590
414187,663,444,500
414190,548,455,422
414194,370,539,468
414198,391,571,573
414202,578,509,582
414206,655,442,477
414211,505,475,417
414215,358,555,491
414219,432,566,587
414223,622,489,564
414227,638,440,458
414231,458,494,432
414235,348,570,523
414239,471,553,599
414243,643,470,545
414246,608,441,440
414251,421,507,440
414255,358,572,544
414259,513,534,595
414263,656,453,519
414267,573,450,426
414271,388,528,454
414275,377,573,562
414279,558,516,583
414283,658,441,484
414287,525,461,413
414291,360,542,475
414296,407,566,578
414300,596,499,573
414303,649,442,465
414307,487,482,413
414311,351,563,499
414315,442,558,586
414319,627,475,551
414323,625,433,446
414327,443,496,425
414331,350,571,529
414336,487,546,594
414340,650,463,532
414344,600,445,434
414348,411,518,441
414352,366,577,547
414356,536,531,591
414359,666,451,506
414363,560,455,422
414367,381,534,464
414371,388,572,571
414375,578,509,579
414380,661,438,475
414384,516,469,410
414388,358,556,481
414392,424,574,582
414396,615,496,563
414400,644,441,454
414404,473,490,417
414408,352,569,511
414412,464,558,592
414415,641,475,546
414419,619,443,441
414424,432,509,435
414428,356,576,542
414432,510,546,602
414436,659,462,521
414440,584,449,422
414444,393,524,447
414448,373,574,563
414452,552,525,600
414456,664,449,505
414460,542,464,423
414465,372,545,475
414469,404,572,583
414472,595,505,580
414476,657,443,474
414480,491,478,419
414484,349,560,498
414488,439,561,589
414492,627,483,557
414496,637,439,449
414500,453,497,426
414504,349,575,524
414509,479,555,600
414513,646,471,544
414517,599,448,440
414521,414,518,447
414525,361,578,549
414528,526,535,593
414532,665,451,513
414536,569,454,422
414540,385,533,464
414544,387,574,574
414548,569,512,589
414553,660,438,490
414557,523,465,419
414561,361,548,484
414565,415,565,583
414569,601,494,570
414573,647,437,466
414577,476,485,424
414581,350,567,510
414584,457,558,592
414588,639,474,548
414593,627,439,442
414597,439,504,434
414601,356,578,538
414605,500,546,597
414609,651,459,524
414613,588,447,426
414617,407,528,448
414621,375,581,558
414625,543,527,595
414629,657,445,504
414633,547,458,424
414638,374,544,470
414641,397,577,579
414645,581,506,585
414649,655,437,480
414653,506,469,420
414657,359,552,491
414661,433,560,587
414665,617,483,559
414669,635,435,450
414673,459,488,421
414678,351,562,513
414682,469,543,590
414686,635,461,535
414690,608,436,432
414694,428,507,435
414697,366,574,544
414701,521,536,596
414705,658,455,517
414709,573,453,430
414713,391,535,466
414717,382,581,575
414722,560,521,595
414726,662,444,495
414730,530,465,420
414734,366,552,480
414738,410,573,582
414742,597,496,576
414746,651,436,470
414750,486,479,418
414753,349,563,501
414757,447,562,589
414761,632,477,554
414766,626,433,447
414770,441,496,427
414774,349,570,530
414778,489,541,597
414782,650,455,531
414786,598,441,427
414790,408,519,444
414794,365,576,544
414798,538,529,587
414802,667,451,505
414807,559,460,420
414810,379,542,465
414814,389,577,571
414818,578,508,580
414822,667,436,481
414826,515,469,419
414830,358,557,493
414834,426,568,591
414838,615,490,573
414842,645,437,466
414846,468,488,423
414851,351,565,511
414855,468,551,593
414859,647,466,545
414863,617,436,439
414866,423,508,436
414870,353,580,540
414874,511,544,597
414878,663,461,521
414882,583,454,426
414886,393,532,449
414891,372,579,558
414895,555,525,590
414899,664,448,497
414903,538,465,422
414907,368,550,476
414911,403,579,582
414915,592,508,579
414919,658,443,472
414922,496,481,420
414926,351,564,499
414930,438,565,590
414935,623,482,558
414939,631,439,450
414943,450,500,423
414947,350,574,521
414951,480,549,593
414955,651,465,534
414959,605,442,428
414963,411,517,438
414967,362,578,548
414971,528,531,591
414976,662,446,505
414979,569,451,419
414983,387,537,459
414987,387,580,570
414991,565,519,589
414995,656,445,486
414999,517,469,418
415003,361,557,486
415007,419,573,585
415011,605,494,569
415015,648,435,462
415020,479,482,423
415024,353,568,515
415028,458,562,599
415032,636,476,554
415035,624,440,444
415039,440,507,431
415043,358,579,534
415047,501,546,596
415051,656,457,525
415055,590,444,428
415059,401,526,449
415064,371,580,556
415068,542,527,588
415072,663,445,500
415076,550,458,420
415080,378,543,470
415084,404,574,575
415088,588,507,583
415091,657,440,475
415095,503,478,417
415099,358,562,496
415104,433,567,591
415108,616,486,563
415112,637,438,453
415116,461,495,425
415120,351,574,522
415124,475,556,595
415128,642,471,540
415132,605,444,439
415136,419,517,444
415140,356,580,549
415144,517,537,599
415148,659,451,517
415152,573,448,425
415156,386,531,457
415160,378,577,564
415164,565,515,587
415168,665,440,489
415172,532,465,417
415176,364,551,478
415180,413,569,581
415184,607,494,571
415188,657,436,466
415193,488,484,422
415197,349,568,509
415201,451,561,594
415204,635,478,558
415208,630,436,453
415212,444,498,432
415216,350,573,533
415220,488,545,604
415224,652,459,540
415228,597,445,434
415233,408,524,449
415237,368,579,553
415241,537,526,590
415245,664,442,505
415249,554,453,423
415253,375,539,468
415257,386,573,570
415260,578,505,581
415264,659,436,478
415268,512,470,418
415272,357,558,490
415277,421,570,585
415281,610,490,563
415285,637,434,453
415289,461,486,420
415293,351,571,517
415297,467,562,602
415301,641,476,546
415305,617,443,437
415309,430,513,436
415313,357,581,540
415316,510,542,599
415321,659,455,524
415325,581,446,429
415329,395,528,461
415333,376,581,568
415337,551,524,581
415341,659,442,486
415345,539,460,417
415349,370,546,473
415353,405,574,578
415357,595,506,573
415362,656,443,469
415366,493,483,420
415370,349,565,494
415373,430,565,585
415377,619,485,553
415381,633,442,445
415385,456,498,426
415389,357,574,523
415393,486,552,593
415397,650,466,535
415401,602,444,439
415406,413,519,447
415410,361,579,552
415414,524,534,597
415418,657,448,514
415422,561,451,426
415426,384,536,466
415429,384,578,575
415433,570,517,589
415437,661,443,486
415441,520,469,422
415446,362,556,486
415450,416,569,582
415454,603,491,570
415458,651,435,463
415462,482,485,419
415466,355,567,510
415470,460,558,592
415474,639,473,549
415478,622,439,443
415482,436,508,434
415485,352,580,536
415490,501,549,597
415494,659,465,520
415498,588,454,424
415502,400,533,445
415506,369,583,552
415510,543,527,584
415514,661,446,496
415518,544,460,419
415522,371,544,473
415526,396,574,579
415531,584,503,572
415535,656,435,468
415539,499,471,411
415542,349,557,486
415546,429,562,583
415550,620,483,559
415554,639,435,455
415558,461,495,427
415562,350,575,520
415566,474,557,596
415570,645,473,540
415575,608,447,438
415579,418,517,447
415583,360,579,548
415587,519,536,595
415591,660,455,517
415595,574,454,426
415598,391,537,463
415602,377,581,571
415606,559,519,590
415610,662,441,491
415614,529,464,422
415619,363,548,481
415623,411,569,584
415627,597,494,573
415631,647,435,467
415635,487,483,424
415639,356,569,505
415643,451,564,591
415647,632,478,548
415651,628,438,445
415654,444,504,432
415659,357,578,528
415663,494,548,594
415667,651,463,527
415671,594,449,428
415675,408,526,446
415679,369,583,554
415683,536,531,589
415687,658,449,502
415691,554,459,420
415695,380,544,467
415699,392,580,575
415704,579,513,579
415708,660,441,478
415711,512,475,421
415715,357,559,493
415719,428,571,592
415723,615,495,568
415727,643,439,460
415731,467,486,431
415735,351,561,512
415739,468,547,587
415744,645,466,537
415748,612,437,434
415752,425,506,431
415756,356,572,533
415760,514,539,590
415764,664,460,519
415767,580,454,429
415771,391,531,458
415775,375,577,568
415779,559,521,595
415783,667,443,495
415788,536,462,425
415792,361,547,488
415796,400,574,584
415800,592,501,573
415804,654,436,471
415808,489,479,420
415812,347,561,498
415816,441,557,586
415820,632,477,552
415823,639,434,448
415827,452,494,428
415832,346,574,522
415836,484,550,591
415840,659,464,532
415844,606,441,428
415848,410,516,440
415852,362,577,549
415856,534,531,594
415860,673,453,512
415864,568,457,424
415868,378,542,464
415873,386,582,573
415877,579,517,590
415880,671,443,485
415884,522,470,421
415888,355,556,488
415892,415,572,584
415896,614,495,569
415900,655,438,463
415904,474,487,423
415908,344,564,512
415912,457,552,597
415917,644,470,549
415921,627,437,438
415925,429,503,429
415929,348,574,531
415933,503,539,594
415936,665,454,523
415940,591,443,429
415944,394,522,452
415948,365,575,561
415952,545,525,591
415956,667,446,496
415961,546,460,420
415965,366,543,474
415969,397,574,578
415973,592,505,581
415977,660,437,477
415981,497,472,424
415985,349,557,499
415989,432,563,588
415992,627,484,559
415996,644,439,450
416001,456,495,425
416005,341,569,518
416009,472,550,595
416013,653,465,535
416017,613,440,430
416021,415,511,436
416025,352,574,544
416029,517,535,591
416033,667,454,512
416037,574,454,427
416041,385,535,458
416046,380,580,566
416049,565,516,584
416053,665,441,489
416057,528,465,423
416061,358,551,488
416065,409,573,587
416069,606,501,577
416073,655,444,471
416077,484,487,429
416081,345,567,510
416086,444,563,591
416090,634,482,551
416094,630,441,445
416098,437,501,434
416102,345,572,534
416105,492,541,594
416109,660,456,520
416113,599,441,421
416117,401,517,441
416121,361,572,552
416125,539,528,591
416130,672,447,502
416134,560,453,418
416138,371,536,466
416142,387,573,574
416146,586,510,584
416150,670,443,481
416154,512,475,416
416158,348,557,491
416161,421,567,587
416165,623,490,563
416169,654,439,458
416174,464,494,427
416178,341,574,525
416182,469,560,597
416186,655,475,543
416190,623,443,441
416194,422,513,439
416198,346,581,540
416202,512,541,593
416206,669,453,519
416210,584,450,427
416215,387,534,456
416218,370,582,561
416222,557,526,589
416226,671,453,494
416230,539,470,419
416234,362,551,474
416238,401,574,576
416242,595,502,573
416246,654,440,470
416250,493,480,424
416254,349,564,507
416259,439,565,599
416263,628,487,558
416267,633,443,451
416271,447,500,429
416274,347,573,527
416278,483,552,597
416282,656,467,534
416286,604,448,434
416290,408,519,445
416294,353,576,551
416299,522,531,595
416303,664,448,511
416307,565,451,424
416311,374,537,464
416315,380,578,570
416319,576,516,584
416323,669,441,485
416327,520,467,419
416330,353,551,484
416334,414,567,584
416338,615,497,565
416343,656,442,458
416347,476,487,420
416351,341,566,508
416355,457,559,591
416359,647,480,549
416363,628,448,445
416367,433,510,432
416371,348,577,533
416375,502,546,594
416379,664,465,523
416384,589,454,427
416387,391,527,448
416391,364,575,557
416395,548,523,587
416399,670,444,495
416403,544,458,418
416407,363,544,471
416411,395,577,575
416415,592,511,573
416419,664,445,471
416423,502,475,419
416428,351,558,493
416432,433,566,589
416436,626,487,558
416440,642,439,448
416443,456,494,426
416447,346,574,525
416451,474,558,602
416455,648,476,543
416459,608,448,437
416463,417,514,440
416467,357,574,543
416472,521,536,595
416476,666,455,517
416480,573,454,426
416484,381,537,460
416488,377,580,564
416492,562,520,585
416496,664,445,487
416499,531,465,416
416502,358,549,479
416506,408,571,582
416510,602,500,574
416515,654,440,463
416519,483,481,419
416523,346,563,507
416527,447,562,593
416531,632,482,552
416535,627,445,446
416539,440,505,433
416543,349,574,536
416547,495,546,605
416551,660,463,538
416556,600,446,438
416559,405,520,453
416563,363,576,557
416567,535,527,595
416571,661,447,507
416575,555,456,424
416579,374,535,473
416583,387,567,577
416587,582,505,577
416591,667,436,475
416595,509,468,424
416600,348,554,493
416604,421,565,580
416608,621,488,560
416612,652,437,455
416615,467,488,423
416619,347,566,515
416623,463,556,594
416627,647,474,543
416631,619,444,439
416635,419,511,435
416640,346,578,539
416644,508,544,598
416648,665,462,522
416652,580,456,427
416656,384,531,455
416660,369,579,565
416664,559,525,593
416668,675,449,497
416671,542,466,426
416675,357,547,482
416679,398,571,583
416684,599,503,578
416688,660,440,471
416692,494,476,422
416696,347,559,501
416700,439,561,589
416704,636,484,552
416708,642,441,446
416712,450,499,428
416716,346,573,521
416720,485,550,591
416724,661,471,538
416728,607,453,431
416732,408,521,437
416736,354,581,545
416740,524,536,591
416744,664,453,506
416748,565,457,417
416752,379,537,456
416756,380,577,572
416760,570,518,589
416764,664,444,487
416769,518,470,419
416773,356,554,489
416777,417,570,585
416781,611,493,569
416784,652,435,462
416788,480,480,422
416792,350,562,511
416796,459,556,597
416800,639,475,551
416804,625,439,439
416808,437,501,431
416813,355,569,531
416817,502,540,595
416821,654,459,525
416825,583,451,428
416829,399,527,445
416833,369,579,554
416837,543,528,589
416840,663,451,502
416844,545,464,424
416848,371,545,475
416852,395,573,581
416857,581,507,584
416861,652,443,475
416865,503,477,417
416869,358,559,495
416873,438,563,589
416877,625,484,562
416881,645,434,454
416885,464,489,423
416889,350,567,520
416893,473,550,593
416897,646,466,541
416901,608,442,438
416905,418,513,439
416909,357,576,541
416913,518,537,593
416917,664,456,512
416921,575,454,419
416925,384,534,459
416929,370,577,568
416933,559,521,591
416937,668,447,495
416942,531,468,422
416946,356,552,486
416950,405,576,588
416953,604,504,579
416957,659,441,470
416961,487,482,424
416965,347,565,511
416969,447,564,594
416973,638,484,552
416977,633,441,444
416982,439,500,423
416986,343,569,524
416990,487,545,592
416994,660,464,527
416998,600,446,423
417002,401,518,439
417006,359,572,549
417009,536,527,592
417013,673,450,506
417017,560,456,420
417021,371,540,465
417026,383,576,574
417030,582,513,580
417034,669,444,480
417038,514,474,421
417042,347,556,496
417046,419,569,595
417050,621,494,578
417054,653,441,465
417058,466,489,426
417062,339,567,515
417065,462,556,595
417070,656,476,544
417074,629,444,437
417078,428,510,431
417082,348,576,535
417086,509,543,592
417090,666,458,518
417094,580,449,423
417098,380,526,454
417102,363,579,564
417106,552,528,589
417111,673,450,492
417115,544,468,415
417119,362,549,473
417122,398,579,583
417126,596,510,582
417130,662,445,473
417134,495,482,422
417138,347,563,499
417142,438,567,594
417146,633,489,564
417150,641,445,455
417155,452,502,431
417159,349,575,533
417163,485,552,599
417167,655,467,537
417171,609,443,430
417175,413,514,436
417178,358,574,545
417182,525,532,593
417186,665,452,507
417190,567,453,415
417195,380,534,456
417199,383,576,566
417203,570,517,586
417207,666,445,482
417211,521,473,415
417215,355,559,484
417219,413,577,584
417223,610,502,571
417227,653,445,463
417231,477,492,420
417234,349,573,511
417238,456,567,596
417242,641,485,555
417246,627,451,454
417250,435,511,435
417254,351,578,538
417258,500,544,602
417262,658,461,527
417266,589,449,418
417270,396,525,436
417274,367,579,554
417278,545,529,588
417283,669,452,491
417287,549,463,408
417290,365,544,459
417293,391,576,568
417297,592,511,575
417301,670,444,473
417305,510,480,413
417309,353,563,490
417313,433,568,590
417317,632,489,565
417321,653,440,457
417326,462,497,427
417330,342,574,525
417334,473,557,602
417338,657,477,545
417342,617,451,443
417346,416,514,445
417350,352,575,552
417354,520,538,606
417358,669,457,525
417362,576,455,430
417367,380,531,461
417371,371,574,573
417375,562,516,594
417379,667,442,495
417383,528,461,421
417387,358,543,484
417391,406,564,588
417395,604,496,577
417399,659,437,470
417402,488,480,423
417405,345,561,510
417410,444,560,599
417414,636,479,562
417418,634,436,446
417422,441,494,426
417426,347,566,529
417430,491,542,600
417434,658,463,534
417438,598,448,432
417442,404,518,449
417446,364,572,558
417451,537,527,599
417455,667,450,511
417459,559,456,418
417462,373,535,461
417466,386,572,573
417470,578,512,581
417474,663,442,479
417478,512,470,412
417482,353,552,484
417486,419,567,586
417490,611,494,567
417495,648,443,456
417499,470,492,419
417503,347,566,513
417507,465,555,598
417511,647,475,550
417515,621,443,440
417518,426,506,439
417522,352,572,545
417526,508,539,601
417530,660,459,521
417534,579,449,426
417539,389,523,456
417543,369,574,566
417547,553,524,592
417551,666,446,499
417555,539,460,417
417559,361,540,475
417563,398,569,582
417567,593,503,580
417571,658,441,475
417574,494,480,418
417579,346,559,494
417583,436,560,588
417587,630,483,556
417591,636,439,448
417595,447,497,429
417599,342,573,534
417603,479,553,610
417607,654,472,540
417611,606,448,436
417615,408,514,443
417619,354,574,552
417624,526,533,602
417628,666,453,515
417631,565,455,427
417635,376,534,466
417639,377,575,574
417643,570,516,595
417647,670,447,494
417651,526,471,424
417655,357,557,489
417659,416,572,586
417664,615,498,572
417668,656,443,464
417672,480,488,419
417676,346,566,506
417680,457,561,592
417684,645,482,548
417687,630,446,440
417691,435,512,430
417695,350,582,534
417699,499,551,600
417703,659,466,523
417708,592,453,421
417712,402,527,444
417716,368,580,554
417720,547,529,587
417724,672,451,498
417728,552,460,417
417732,370,540,467
417736,393,572,578
417740,587,508,583
417743,660,439,475
417747,502,471,414
417752,352,553,491
417756,432,562,585
417760,625,486,559
417764,647,439,451
417768,462,492,411
417772,350,566,508
417776,474,548,589
417780,648,469,537
417784,613,444,432
417788,420,512,436
417793,354,575,541
417797,514,537,591
417800,663,459,512
417804,577,456,419
417808,387,535,456
417812,378,579,569
417816,561,520,593
417820,665,446,496
417824,534,467,424
417828,367,548,485
417832,410,569,592
417837,603,499,582
417841,655,440,466
417845,488,481,417
417849,355,561,501
417853,450,560,593
417856,631,480,557
417860,633,440,443
417864,444,499,424
417868,351,571,527
417872,493,545,595
417876,658,464,530
417881,599,446,428
417885,405,520,448
417889,360,577,559
417893,535,532,602
417897,671,449,507
417901,563,453,420
417905,375,535,464
417909,387,572,572
417912,578,509,585
417916,666,440,486
417921,515,472,423
417925,354,554,490
417929,421,565,591
417933,618,492,575
417937,652,439,463
417941,471,485,423
417945,346,561,516
417949,463,553,609
417953,648,474,558
417957,622,443,447
417961,428,508,433
417966,353,572,535
417969,510,538,604
417973,666,458,530
417977,586,451,433
417981,390,527,453
417985,370,576,562
417989,556,524,593
417993,671,448,498
417997,545,463,421
418001,367,545,475
418006,399,572,580
418010,595,505,584
418014,662,441,478
418018,495,481,423
418022,345,561,500
418025,435,565,594
418029,628,489,563
418033,641,444,450
418037,453,498,424
418041,347,572,526
418045,477,553,598
418050,649,469,539
418054,603,445,432
418058,410,517,439
418062,358,576,548
418066,527,535,598
418070,666,456,512
418074,569,456,422
418078,382,535,461
418081,384,575,570
418085,572,517,591
418089,666,445,493
418094,526,472,427
418098,359,554,491
418102,415,568,585
418106,611,493,571
418110,655,436,466
418114,481,482,423
418118,353,561,509
418122,460,554,593
418126,641,473,549
418130,630,438,441
418135,442,501,430
418138,356,572,533
418142,500,545,593
418146,658,463,520
418150,595,449,419
418154,404,522,438
418158,369,575,550
418162,544,527,590
418166,669,453,501
418170,550,468,419
418174,371,550,470
418179,395,578,575
418183,585,511,581
418187,663,444,477
418191,507,475,417
418194,354,559,493
418198,432,568,589
418202,625,491,564
418206,647,441,457
418210,463,492,425
418214,348,568,515
418219,474,551,593
418223,651,467,539
418227,617,439,434
418231,423,504,435
418235,358,568,543
418239,517,530,593
418243,663,449,515
418247,576,447,426
418250,387,526,452
418254,376,572,564
418258,561,518,587
418263,666,444,491
418267,535,467,417
418271,364,555,476
418275,407,579,579
418279,602,507,573
418283,656,448,466
418287,488,486,422
418291,349,569,503
418295,447,569,596
418299,633,485,564
418304,634,443,454
418307,446,501,433
418310,347,573,533
418314,488,545,608
418318,654,462,537
418322,594,442,423
418326,399,517,434
418330,359,578,549
418334,532,532,593
418338,667,453,503
418342,558,459,412
418347,374,539,456
418351,389,576,567
418355,581,513,580
418359,666,445,474
418362,514,476,413
418366,354,562,487
418370,421,574,587
418374,619,497,566
418378,652,445,456
418382,469,492,420
418386,345,566,515
418391,464,555,600
418395,650,474,546
418399,625,443,441
418403,428,509,433
418407,350,573,539
418411,504,538,597
418415,661,456,522
418418,582,449,420
418422,391,523,444
418426,370,570,560
418430,549,518,593
418435,666,442,497
418439,540,457,418
418443,365,538,473
418447,400,565,576
418451,593,499,577
418455,660,441,473
418459,497,481,421
418463,350,563,501
418467,438,565,593
418471,628,487,563
418475,638,444,455
418478,449,499,432
418482,343,573,527
418486,478,555,599
418490,649,472,541
418494,603,449,440
418498,410,518,448
418502,353,578,552
418506,523,538,595
418510,663,456,511
418514,567,453,423
418519,380,533,461
418523,378,573,567
418527,567,513,586
418530,662,442,486
418533,524,468,416
418537,360,554,485
418541,416,575,589
418545,608,501,578
418549,652,442,463
418553,478,489,423
418557,349,573,515
418562,454,569,601
418566,637,484,555
418570,629,444,448
418574,438,507,435
418578,352,578,538
418582,500,549,605
418585,663,459,530
418588,598,443,428
418592,401,521,449
418596,364,576,559
418600,542,525,597
418605,665,443,503
418609,548,451,427
418613,367,533,473
418617,392,567,580
418621,584,506,586
418625,658,438,479
418629,503,471,420
418633,355,551,493
418637,432,561,591
418641,620,489,562
418644,639,444,452
418649,460,499,425
418653,352,575,521
418657,475,556,598
418661,650,471,541
418665,615,445,436
418669,426,521,434
418673,362,592,546
418677,522,550,597
418681,665,464,518
418685,577,458,424
418690,386,532,458
418694,374,578,565
418697,561,535,584
418700,667,473,482
418704,531,478,420
418708,360,543,478
418712,406,559,584
418716,599,492,580
418720,654,435,467
418724,492,476,418
418728,352,558,499
418733,445,559,583
418737,630,484,547
418741,630,441,446
418745,443,494,430
418749,348,566,530
418753,487,543,600
418756,652,463,535
418760,599,447,435
418764,409,520,449
418768,363,580,555
418772,533,536,597
418777,664,453,512
418781,558,457,424
418785,375,536,469
418789,387,572,575
418793,575,511,582
418797,659,443,481
418801,513,471,418
418805,358,549,484
418809,425,561,584
418812,612,489,569
418817,645,435,463
418821,471,485,424
418825,350,561,513
418829,460,551,591
418833,638,470,549
418837,620,440,443
418841,434,504,433
418845,359,574,535
418849,510,543,598
418853,658,457,524
418857,584,449,427
418862,397,526,439
418866,372,574,550
418869,548,522,591
418873,663,444,491
418877,538,458,416
418881,370,541,471
418885,401,576,580
418889,587,514,579
418893,652,450,477
418897,497,480,416
418902,354,554,495
418906,440,558,586
418910,627,480,544
418914,638,432,439
418918,456,486,430
418922,352,565,531
418925,480,540,601
418929,652,451,530
418933,611,427,429
418937,415,510,445
418941,361,577,547
418946,527,531,590
418950,668,443,489
418954,570,449,409
418958,382,541,455
418962,379,587,572
418966,566,516,598
418970,668,437,509
418974,527,465,442
418978,357,552,503
418981,415,568,595
418985,612,475,579
418990,654,413,469
418994,479,470,427
418998,345,561,501
419002,452,554,601
419006,639,469,570
419010,628,434,454
419014,432,501,424
419018,345,579,527
419022,494,547,600
419026,656,457,531
419031,590,446,429
419035,398,528,447
419038,364,584,570
419042,542,530,602
419046,667,444,505
419050,550,455,427
419054,369,543,478
419058,392,580,582
419062,587,517,581
419066,664,449,472
419070,506,483,418
419075,350,572,493
419079,422,576,590
419083,622,488,562
419087,647,432,449
419091,458,492,419
419094,345,571,518
419098,474,555,587
419102,651,470,532
419106,612,445,429
419110,417,523,434
419115,352,589,538
419119,514,544,592
419123,660,457,508
419127,573,455,413
419131,384,540,439
419135,374,592,558
419139,560,538,587
419143,664,462,490
419147,534,477,421
419150,365,552,485
419154,411,570,576
419159,600,505,564
419163,653,454,457
419167,487,487,420
419171,348,565,515
419175,440,564,599
419179,627,474,561
419183,629,427,444
419187,442,497,425
419191,352,594,509
419195,490,564,579
419200,655,469,515
419204,602,430,435
419207,407,489,459
419211,361,557,543
419215,532,517,574
419219,662,438,504
419223,560,444,407
419227,379,530,462
419231,390,570,576
419235,579,517,576
419239,662,449,457
419244,513,465,416
419248,357,544,497
419252,422,559,574
419256,613,472,553
419260,645,415,473
419263,467,482,419
419267,347,577,507
419271,461,570,587
419275,643,475,539
419279,618,420,451
419283,424,494,443
419288,354,579,509
419292,507,577,561
419296,660,540,459
419300,584,520,419
419304,395,541,503
419308,372,575,570
419312,552,512,612
419316,667,399,522
419319,541,417,415
419323,367,558,455
419328,401,618,537
419332,593,583,493
419336,659,503,460
419340,499,504,467
419344,352,562,531
419348,438,582,602
419352,627,469,562
419356,641,394,463
419360,455,488,432
419364,347,569,549
419368,478,517,616
419373,654,459,528
419376,608,495,421
419380,411,575,472
419384,353,613,599
419388,523,533,615
419392,671,468,513
419396,569,500,431
419400,375,659,456
419404,376,686,624
419408,568,518,656
419412,670,377,523
419417,525,404,429
419421,353,535,501
419425,410,604,592
419429,611,498,597
419432,657,399,520
419436,478,455,454
419440,343,643,464
419444,451,682,558
419448,639,530,583
419452,628,447,470
419457,435,515,449
419461,351,663,429
419465,499,636,521
419469,660,450,556
419473,595,404,461
419477,397,496,442
419481,363,615,526
419485,542,616,582
419488,667,468,552
419492,552,403,465
419496,370,513,483
419501,391,583,578
419505,584,541,588
419509,663,491,430
419513,504,509,394
419517,348,582,460
419521,425,603,583
419525,619,475,579
419529,641,383,448
419533,458,461,405
419537,344,688,420
419542,470,699,570
419545,651,478,603
419549,618,371,483
419553,418,536,392
419557,349,638,541
419561,513,495,659
419565,665,355,570
419569,576,333,462
419573,381,404,497
419577,370,502,594
419581,560,488,574
419586,669,472,465
419590,533,600,373
419594,357,720,449
419598,400,641,607
419601,590,553,566
419605,655,459,465
419609,488,446,450
419613,344,486,541
419617,440,548,614
419621,638,486,545
419625,638,471,393
419630,445,526,395
419634,345,546,574
419638,492,530,665
419642,664,419,563
419646,608,404,460
419650,410,460,512
419654,359,494,591
419657,534,518,581
419661,670,491,518
419665,561,583,379
419670,373,578,496
419674,384,456,620
419678,573,336,596
419682,661,287,459
419686,514,400,414
419690,348,580,470
419694,417,653,600
419698,615,625,527
419702,643,525,423
419706,466,506,460
419710,339,522,578
419714,446,496,636
419718,630,411,561
419722,608,356,462
419726,414,422,462
419730,332,553,551
419734,491,551,603
419738,651,386,527
419742,571,346,439
419746,393,524,426
419750,376,754,467
419755,542,696,525
419759,646,433,553
419763,522,348,484
419767,371,453,476
419770,389,617,509
419774,577,559,546
419778,650,377,482
419782,487,472,393
419786,332,679,460
419790,404,649,621
419794,587,477,632
419799,566,288,506
419803,407,311,461
419807,353,440,530
419811,502,443,620
419815,666,365,549
419819,612,385,437
419823,447,562,382
419826,398,799,449
419830,571,713,571
419834,685,429,530
419838,573,345,455
419843,354,521,419
419847,354,608,560
419851,572,432,636
419855,672,352,515
419859,556,491,361
419863,421,641,442
419867,428,598,607
419871,586,393,606
419875,637,321,492
419879,453,413,471
419883,356,606,490
419887,472,616,610
419891,624,420,571
419895,607,377,428
419899,445,565,377
419903,396,674,492
419907,483,586,572
419911,585,470,491
419915,561,370,460
419919,464,406,504
419923,447,510,551
419928,589,490,578
419932,655,507,455
419936,591,553,408
419939,411,633,458
419943,392,584,549
419947,547,411,632
419951,571,379,494
419955,514,508,423
419959,449,554,504
419963,501,502,595
419968,607,417,549
419972,598,359,472
419976,485,454,420
419980,413,574,526
419984,524,535,599
419988,625,488,516
419992,545,423,422
419995,421,473,461
419999,424,580,516
420003,566,588,536
420007,663,515,456
420012,579,461,414
420016,388,527,490
420020,364,591,606
420024,553,575,585
420028,647,374,519
420032,509,354,450
420036,411,462,523
420040,465,584,530
420044,592,638,489
420048,658,610,409
420051,571,497,465
420056,434,458,588
420060,480,412,647
420064,571,371,568
420068,565,420,400
420072,448,484,437
420076,419,563,509
420080,476,646,534
420084,625,572,466
420088,630,471,412
420092,432,474,493
420097,359,497,590
420101,503,475,590
420105,645,486,460
420108,569,506,438
420112,396,531,522
420116,418,533,587
420120,626,569,561
420124,696,442,508
420128,559,401,430
420132,339,464,528
420136,361,462,608
420141,579,395,562
420145,699,378,460
420149,558,516,400
420153,431,725,457
420157,481,677,561
420161,606,547,513
420164,573,582,339
420168,383,622,402
420172,328,531,566
420176,523,421,667
420180,653,356,567
420185,595,466,407
420189,357,608,428
420193,328,564,594
420197,594,417,634
420201,718,302,535
420205,583,345,476
420209,332,549,484
420213,291,661,492
420217,600,572,532
420220,717,442,475
420225,533,499,379
420229,406,687,483
420233,477,572,655
420237,624,360,623
420241,663,330,480
420245,500,490,389
420249,355,601,520
420253,440,655,530
420257,622,661,411
420261,574,391,527
420265,411,336,563
420270,354,407,648
420274,459,425,601
420277,614,395,480
420281,537,476,401
420285,405,666,433
420289,441,630,570
420293,581,446,595
420297,681,337,487
420301,598,425,385
420305,431,596,437
420310,426,660,541
420314,568,522,570
420318,631,399,472
420322,492,481,433
420326,362,707,440
420330,413,777,571
420333,599,505,562
420337,648,300,515
420341,470,435,424
420345,337,758,476
420349,416,655,559
420354,633,357,618
420358,608,264,490
420362,409,374,511
420366,335,521,552
420370,550,596,471
420374,692,490,429
420378,572,474,415
420382,369,527,519
420386,368,557,615
420389,584,460,591
420392,665,486,411
420397,535,529,407
420401,366,531,546
420405,423,506,662
420409,645,407,579
420413,659,400,442
420417,469,469,438
420421,310,644,500
420425,433,608,598
420429,597,412,555
420433,587,383,406
420438,416,625,383
420442,399,737,515
420446,525,532,626
420449,638,317,571
420453,557,299,464
420457,393,492,450
420461,365,622,529
420465,556,507,578
420469,688,458,437
420473,557,557,357
420477,383,778,378
420482,414,748,554
420486,572,431,669
420490,600,278,542
420494,465,329,468
420498,347,479,527
420502,472,530,587
420505,662,450,547
420509,654,413,459
420513,406,575,388
420517,281,688,500
420521,460,655,531
420526,669,513,523
420530,647,365,494
420534,453,440,452
420538,372,579,559
420542,503,584,612
420546,655,436,504
420550,576,404,438
420554,406,584,429
420558,418,690,501
420561,602,581,507
420566,687,384,548
420570,537,351,483
420574,336,506,512
420578,417,766,475
420582,595,617,551
420586,656,363,509
420590,487,361,453
420594,349,463,561
420598,456,523,579
420602,646,515,513
420606,604,439,463
420611,373,557,418
420615,320,630,525
420618,518,525,595
420622,703,398,525
420626,590,422,435
420630,383,586,424
420634,393,677,550
420638,582,550,595
420642,696,343,550
420646,597,341,448
420651,420,592,392
420655,408,731,538
420659,596,502,601
420663,681,319,519
420667,507,376,452
420671,346,568,485
420674,421,572,595
420678,622,453,558
420682,589,452,408
420686,445,568,388
420690,382,576,527
420695,507,639,571
420699,643,585,548
420703,584,464,482
420707,442,408,506
420711,401,475,575
420715,524,448,589
420719,643,397,517
420723,590,464,395
420727,451,535,488
420730,434,558,563
420734,557,491,579
420739,647,469,445
420743,519,461,447
420747,367,540,488
420751,447,576,563
420755,640,480,571
420759,649,389,469
420763,467,484,410
420767,330,615,490
420771,451,568,602
420775,639,439,584
420780,630,398,472
420784,423,566,414
420787,362,742,456
420791,519,623,590
420795,671,376,571
420799,625,330,433
420803,444,521,405
420807,393,616,533
420811,540,490,638
420815,659,381,532
420819,552,415,432
420824,370,661,384
420828,413,683,556
420832,607,467,605
420836,661,354,490
420840,502,511,334
420843,365,731,398
420847,419,645,596
420851,586,384,636
420855,634,306,535
420859,488,449,476
420864,374,744,398
420868,442,697,561
420872,604,413,583
420876,633,296,477
420880,456,416,468
420884,373,650,519
420888,518,716,463
420892,671,529,523
420896,596,350,484
420899,433,432,471
420903,418,546,562
420908,561,534,559
420912,648,427,481
420916,534,477,406
420920,376,539,524
420924,435,561,618
420928,606,509,537
420932,627,453,450
420936,466,562,409
420940,362,644,489
420944,449,602,596
420948,615,640,422
420953,627,639,358
420956,459,441,546
420960,388,424,637
420964,513,404,635
420968,671,375,508
420972,631,425,420
420976,434,527,457
420980,372,608,523
420984,534,581,558
420988,648,464,459
420993,576,504,395
420997,416,531,518
421001,387,522,625
421005,524,431,624
421009,623,381,495
421012,541,473,369
421016,388,600,480
421020,391,598,596
421024,617,535,566
421028,669,453,456
421032,511,447,445
421037,395,547,503
421041,463,592,571
421045,605,508,537
421049,604,424,466
421053,449,464,446
421057,363,528,536
421061,497,501,591
421065,640,433,500
421068,552,455,422
421072,420,600,431
421076,410,644,576
421081,547,517,600
421085,679,443,462
421089,579,484,419
421093,405,531,518
421097,425,551,602
421101,592,453,607
421105,620,396,492
421109,476,478,416
421113,368,599,492
421117,416,589,583
421122,577,491,529
421125,586,456,415
421129,457,555,413
421133,394,649,498
421137,510,559,576
421141,652,517,452
421145,626,583,391
421149,449,577,473
421153,392,496,621
421157,534,415,636
421161,651,415,474
421166,574,441,437
421170,397,508,498
421174,391,544,583
421178,561,507,585
421181,642,491,471
421185,529,578,417
421189,379,545,513
421193,380,545,558
421197,538,543,497
421201,586,600,375
421206,456,535,474
421210,372,532,575
421214,484,481,630
421218,647,387,539
421222,631,446,382
421226,469,556,432
421230,401,574,535
421234,501,514,631
421237,624,418,542
421241,578,410,453
421245,426,553,410
421250,396,690,502
421254,522,597,612
421258,631,463,508
421262,520,506,400
421266,354,581,455
421270,370,515,623
421274,557,458,578
421278,576,439,440
421282,458,600,330
421286,368,705,453
421291,439,584,611
421294,605,407,584
421298,621,443,407
421302,479,566,406
421306,390,604,522
421310,481,517,647
421314,634,410,572
421318,609,457,371
421322,434,543,437
421326,382,504,579
421330,505,440,609
421335,616,367,539
421339,546,436,397
421343,396,621,431
421347,377,627,620
421350,534,483,608
421354,622,408,462
421358,507,545,295
421362,359,645,482
421366,393,582,621
421370,560,440,627
421374,618,333,475
421379,448,468,410
421383,367,629,492
421387,484,582,625
421391,616,454,540
421395,616,515,407
421399,453,561,469
421403,383,580,569
421406,494,546,618
421410,623,479,526
421414,562,416,454
421419,390,557,395
421423,376,773,400
421427,539,622,609
421431,656,347,580
421435,563,311,479
421439,391,440,502
421443,357,700,431
421447,507,708,559
421451,615,403,578
421455,509,321,494
421459,384,477,484
421463,427,550,626
421467,585,580,519
421471,624,551,445
421475,435,521,493
421479,372,556,543
421483,471,691,491
421487,649,514,580
421491,619,378,518
421495,431,448,448
421499,344,584,513
421504,478,459,642
421508,639,317,516
421512,592,561,228
421516,428,792,375
421519,399,586,638
421523,530,346,688
421527,631,284,492
421531,529,661,262
421535,369,700,524
421539,374,464,681
421543,523,336,635
421548,580,462,397
421552,467,702,359
421556,373,659,566
421560,464,413,693
421564,629,265,666
421568,619,359,424
421572,430,711,297
421575,351,686,518
421579,489,415,716
421583,626,252,643
421587,595,276,492
421592,409,476,428
421596,350,729,463
421600,510,669,553
421604,649,435,533
421608,564,363,438
421612,405,519,426
421616,396,684,516
421620,526,627,525
421624,593,525,446
421628,481,479,475
421632,356,549,530
421636,410,507,653
421640,548,409,603
421644,622,447,417
421648,490,439,471
421652,388,530,506
421656,478,622,605
421660,622,489,584
421664,592,451,449
421668,429,474,439
421672,372,581,520
421677,497,658,560
421681,635,433,551
421685,573,362,439
421688,396,550,412
421692,376,579,581
421696,530,551,566
421700,628,437,540
421704,523,386,466
421708,355,465,490
421712,374,551,537
421716,546,533,562
421721,603,485,530
421725,489,496,459
421729,392,617,501
421733,448,548,630
421737,588,460,542
421741,593,589,341
421744,462,604,411
421748,378,512,549
421752,485,448,632
421756,619,390,558
421761,576,371,428
421765,409,532,392
421769,353,725,437
421773,509,606,622
421777,646,361,589
421781,570,344,493
421785,393,494,474
421789,371,710,465
421793,537,691,615
421797,637,451,511
421800,526,366,464
421805,366,418,514
421809,395,528,553
421813,554,681,469
421817,624,466,512
421821,504,368,478
421825,379,450,555
421829,441,484,591
421833,596,510,454
421837,585,542,396
421841,433,573,399
421846,339,568,590
421850,456,474,652
421854,621,503,460
421857,580,688,319
421861,433,584,503
421865,399,474,634
421869,549,389,631
421873,643,438,464
421877,517,718,290
421881,375,673,501
421885,401,454,662
421890,571,320,624
421894,627,336,471
421898,487,400,430
421902,383,523,489
421906,443,568,570
421910,594,577,436
421913,618,559,424
421917,459,483,475
421921,377,516,543
421925,461,595,573
421929,596,775,434
421934,599,651,449
421938,450,432,552
421942,372,359,657
421946,508,357,665
421950,635,385,496
421954,553,473,373
421958,391,497,472
421962,395,493,554
421966,555,507,520
421969,648,654,344
421974,521,766,346
421978,375,678,540
421982,411,427,710
421986,567,256,656
421990,628,249,446
421994,482,392,414
421998,344,604,480
422002,429,619,624
422006,618,496,534
422010,628,399,461
422014,462,525,412
422019,364,646,523
422023,474,680,525
422026,616,426,564
422030,594,287,506
422034,446,385,497
422038,397,509,554
422042,534,579,517
422046,645,537,439
422050,549,509,392
422054,396,555,498
422059,399,550,580
422063,547,576,488
422067,615,592,439
422071,496,505,453
422075,377,518,593
422079,427,550,582
422082,567,445,566
422086,607,374,465
422090,487,560,362
422094,396,646,519
422098,486,481,668
422103,623,321,588
422107,615,328,454
422111,458,459,441
422115,368,567,527
422119,487,619,491
422123,629,615,439
422127,574,462,480
422131,423,511,460
422135,383,591,539
422138,536,519,596
422142,623,407,513
422147,524,418,468
422151,376,578,462
422155,390,602,587
422159,535,517,588
422163,630,397,481
422167,519,455,411
422171,375,616,463
422175,464,703,509
422179,621,481,583
422183,616,339,480
422188,478,487,391
422192,399,615,474
422195,487,605,576
422199,620,473,549
422203,574,359,474
422207,432,454,461
422211,390,614,536
422215,531,572,621
422219,648,412,546
422223,563,422,448
422227,404,568,420
422232,381,599,543
422236,551,480,594
422240,652,427,474
422244,526,497,382
422248,355,621,420
422251,405,585,594
422255,591,459,546
422259,627,562,347
422263,487,742,331
422267,380,606,580
422272,458,449,663
422276,622,331,610
422280,621,351,501
422284,470,509,445
422288,399,581,559
422292,513,459,645
422296,642,387,541
422300,579,434,452
422304,427,536,397
422307,399,560,554
422311,552,453,615
422316,661,379,491
422320,554,525,291
422324,366,668,431
422328,378,626,611
422332,544,446,619
422336,616,340,452
422340,508,472,369
422344,376,666,437
422348,436,649,547
422352,627,462,590
422356,651,396,484
422361,495,508,460
422364,394,587,540
422368,477,500,615
422372,624,358,549
422376,607,340,473
422380,430,473,462
422384,387,603,496
422388,532,613,525
422392,644,548,456
422396,568,463,460
422401,393,499,518
422405,381,559,580
422409,526,486,591
422413,632,462,453
422417,542,598,298
422420,390,647,448
422424,422,537,649
422428,592,438,603
422432,640,405,491
422436,499,554,401
422440,376,555,542
422445,464,483,647
422449,629,400,603
422453,613,435,395
422457,463,567,382
422461,375,627,498
422465,478,595,583
422469,627,415,553
422473,608,345,454
422476,454,451,449
422480,396,561,513
422484,526,593,512
422489,634,521,457
422493,566,490,416
422497,391,605,469
422501,395,620,640
422505,554,514,627
422509,624,373,527
422513,510,400,414
422517,391,626,416
422521,449,693,533
422525,607,499,593
422530,630,337,489
422533,498,397,444
422537,394,596,402
422541,473,600,590
422545,618,458,581
422549,595,406,459
422553,432,537,365
422557,378,722,472
422561,490,580,635
422565,629,418,563
422569,578,440,437
422574,417,516,521
422578,383,620,575
422582,520,554,595
422586,637,373,526
422589,531,368,472
422593,414,518,461
422597,445,599,529
422601,573,550,497
422605,617,480,455
422609,510,496,453
422614,390,592,491
422618,454,596,548
422622,607,494,516
422626,622,386,465
422630,443,443,468
422634,367,596,484
422638,502,760,463
422642,644,515,600
422645,598,360,529
422648,430,469,506
422652,380,559,571
422657,510,542,593
422661,612,454,482
422665,561,427,448
422669,410,517,495
422673,400,623,496
422677,553,646,487
422681,630,413,539
422685,542,356,467
422689,374,467,498
422693,423,549,549
422697,602,524,558
422701,647,434,464
422704,502,519,395
422708,384,621,495
422712,471,642,537
422716,622,537,586
422720,608,472,456
422724,446,441,501
422728,372,480,593
422732,502,522,595
422736,643,629,412
422740,583,488,480
422745,407,417,525
422749,361,474,570
422753,508,454,612
422757,644,412,497
422760,570,513,362
422764,403,607,459
422768,401,565,607
422772,566,471,544
422776,629,478,417
422780,533,567,420
422785,400,645,484
422789,435,584,608
422793,583,458,614
422797,641,436,452
422801,504,667,326
422805,395,578,582
422809,468,415,693
422813,623,331,606
422816,610,416,445
422820,430,553,452
422824,358,558,549
422829,480,484,569
422833,638,366,504
422837,583,410,380
422841,416,585,410
422845,390,647,555
422849,539,532,594
422853,645,442,513
422857,543,462,448
422861,397,547,489
422865,441,615,567
422870,583,547,604
422873,634,563,379
422877,517,508,451
422881,393,498,516
422885,449,601,517
422889,606,497,611
422893,630,318,531
422897,463,416,460
422901,378,618,476
