122843,504,512,508
122847,503,511,504
122851,507,510,507
122854,508,507,508
122857,509,509,508
122861,505,509,506
122865,505,507,507
122869,506,505,508
122873,509,510,508
122877,507,514,508
122882,498,511,507
122886,508,508,506
122890,497,508,507
122894,498,510,508
122898,501,513,510
122902,497,511,509
122906,496,508,511
122910,500,507,511
122913,499,512,512
122917,498,511,511
122921,494,508,509
122926,495,508,510
122930,496,510,511
122934,501,512,510
122938,504,513,508
122942,499,508,509
122946,493,503,508
122950,498,500,508
122954,495,505,512
122958,490,510,513
122962,494,509,512
122967,488,510,511
122970,491,516,512
122974,494,515,510
122978,493,511,509
122982,490,510,509
122986,489,507,510
122990,492,510,512
122994,496,514,514
122998,497,514,514
123002,493,512,515
123006,490,512,515
123011,500,512,512
123015,498,512,511
123019,494,512,510
123023,494,511,510
123026,499,511,509
123030,492,508,509
123034,493,509,508
123038,495,505,505
123042,495,504,504
123046,496,506,505
123051,498,509,504
123055,499,509,505
123059,495,507,507
123063,494,508,508
123067,496,507,507
123071,499,509,510
123075,507,508,508
123079,495,506,506
123082,491,507,505
123086,499,511,508
123090,500,512,510
123095,498,512,510
123099,499,513,510
123103,497,510,509
123107,502,513,513
123111,507,514,511
123115,507,514,510
123119,498,511,510
123123,495,512,507
123127,496,514,507
123131,500,515,510
123136,501,512,511
123139,501,509,511
123143,502,509,508
123147,503,512,506
123151,502,510,506
123155,501,506,506
123159,502,504,507
123163,503,507,507
123167,506,514,508
123171,507,510,506
123175,502,506,508
123180,498,505,508
123184,495,507,508
123188,498,509,506
123192,498,508,508
123195,499,504,509
123199,506,502,505
123203,507,507,506
123207,502,505,505
123211,501,506,505
123215,498,507,506
123219,499,509,507
123224,502,514,508
123228,504,514,507
123232,503,510,506
123236,504,506,506
123240,502,505,506
123244,503,510,506
123248,502,510,504
123251,502,507,505
123255,504,507,506
123259,504,510,508
123264,504,514,510
123268,506,514,511
123272,500,508,510
123276,497,508,511
123280,504,513,510
123284,502,514,509
123288,501,513,509
123292,502,510,508
123296,503,510,508
123300,503,512,510
123304,510,513,512
123308,507,512,511
123312,501,506,507
123316,500,503,508
123320,500,505,511
123324,502,506,510
123328,498,504,510
123332,502,503,510
123336,506,502,509
123340,503,504,507
123344,499,507,507
123348,496,501,507
123353,495,502,510
123357,502,507,513
123361,507,509,512
123364,507,505,510
123368,503,501,508
123372,505,501,509
123376,501,506,511
123380,500,507,508
123384,502,509,510
123388,498,507,509
123393,502,505,509
123397,508,506,510
123401,509,509,511
123405,506,509,511
123409,500,507,512
123413,501,507,511
123417,502,506,507
123420,503,504,509
123424,500,503,510
123428,497,508,513
123432,501,508,513
123437,507,511,512
123441,507,511,506
123445,507,510,506
123449,508,508,507
123453,506,509,507
123457,506,511,507
123461,503,511,507
123465,504,509,506
123469,503,510,508
123473,509,510,508
123476,514,512,505
123481,511,509,503
123485,505,507,509
123489,503,506,510
123493,503,508,510
123497,502,511,509
123501,505,511,509
123505,505,511,509
123509,502,513,511
123513,507,515,511
123517,505,513,510
123522,512,508,507
123526,501,506,508
123530,496,505,508
123533,500,506,509
123537,503,507,507
123541,501,505,503
123545,501,502,504
123549,504,506,506
123553,508,507,504
123557,507,506,503
123561,507,506,508
123566,504,508,511
123570,506,511,511
123574,512,512,508
123578,501,511,509
123582,502,510,510
123586,499,508,508
123589,506,510,504
123593,504,510,504
123597,501,510,506
123601,498,509,507
123606,502,507,507
123610,506,510,503
123614,509,509,505
123618,504,508,505
123622,507,508,506
123626,504,509,507
123630,501,511,506
123634,503,509,505
123638,507,506,507
123642,503,506,510
123645,502,508,512
123650,507,513,512
123654,508,513,510
123658,500,509,512
123662,503,507,512
123666,505,508,511
123670,505,506,511
123674,506,503,508
123678,506,503,508
123682,507,502,510
123686,507,506,510
123691,503,508,511
123695,504,509,511
123699,498,509,509
123702,503,506,508
123705,508,508,509
123709,504,510,510
123713,505,507,508
123717,504,506,505
123721,502,506,506
123725,509,509,510
123729,504,514,510
123734,509,512,507
123738,504,507,510
123742,502,510,511
123746,501,514,512
123750,500,512,510
123754,502,507,506
123757,503,507,506
123761,504,510,507
123765,507,513,509
123769,504,511,509
123773,510,506,507
123778,511,504,509
123782,509,507,509
123786,501,508,507
123790,501,508,511
123794,502,509,512
123798,503,511,511
123802,505,512,508
123806,505,511,510
123810,505,513,510
123813,507,513,510
123816,504,510,506
123821,497,512,506
123825,500,515,506
123829,499,512,506
123833,503,510,505
123837,507,513,505
123841,512,517,506
123845,510,516,506
123849,504,511,506
123853,504,511,507
123857,499,512,505
123862,500,513,511
123866,503,512,511
123870,504,510,510
123873,510,507,511
123877,513,509,511
123881,512,513,510
123885,506,512,508
123889,514,513,510
123893,514,512,510
123897,502,515,508
123901,499,512,507
123906,501,508,507
123910,505,509,505
123914,509,511,506
123918,515,514,507
123922,504,515,507
123926,503,513,506
123929,510,512,510
123933,515,513,511
123937,513,511,508
123941,507,512,508
123945,512,510,507
123950,511,507,508
123954,518,508,510
123958,517,509,508
123962,504,507,506
123966,506,509,511
123970,512,510,512
123974,516,509,511
123978,506,510,509
123982,505,506,509
123985,512,505,507
123990,510,506,510
123994,509,509,510
123998,506,509,508
124002,513,509,509
124006,514,507,509
124010,507,506,508
124014,510,509,506
124018,510,511,507
124022,505,507,508
124026,513,507,504
124030,507,512,505
124035,511,516,509
124039,510,514,512
124042,505,508,510
124046,509,504,507
124050,512,505,506
124054,514,509,508
124058,507,506,507
124062,508,503,509
124066,507,505,509
124070,515,509,505
124075,514,514,507
124079,509,511,505
124083,503,505,505
124087,506,504,506
124091,512,509,506
124094,510,512,505
124097,505,510,503
124101,506,506,503
124105,506,505,504
124109,511,508,506
124113,516,515,507
124118,509,513,507
124122,514,510,509
124126,508,507,507
124130,511,510,504
124134,508,510,502
124138,507,507,500
124142,508,505,503
124146,515,510,508
124150,512,514,510
124153,512,511,510
124157,506,504,508
124162,511,503,506
124166,509,509,509
124170,509,512,509
124174,507,511,505
124178,509,509,506
124182,512,511,504
124186,517,516,502
124190,517,519,505
124194,509,514,506
124198,506,508,509
124203,508,509,508
124207,508,513,509
124210,508,513,508
124214,510,513,508
124218,508,513,511
124222,516,513,512
124226,516,514,512
124230,508,513,508
124234,505,512,506
124238,503,511,509
124242,508,510,508
124247,511,510,506
124251,520,510,504
124255,512,512,508
124259,507,511,511
124263,508,513,511
124266,511,513,507
124270,512,510,502
124274,514,512,503
124278,516,516,505
124282,514,515,505
124286,512,514,505
124291,509,509,502
124295,511,506,506
124299,510,507,508
124303,513,507,508
124307,513,508,509
124311,510,513,509
124315,509,512,507
124319,517,505,505
124322,520,503,506
124326,515,505,505
124331,510,504,502
124335,508,507,499
124339,513,511,501
124343,515,509,510
124347,510,506,516
124351,511,503,513
124355,511,503,508
124359,516,505,510
124363,514,509,510
124367,516,509,510
124371,523,509,509
124376,512,509,507
124379,510,508,507
124383,510,509,509
124387,515,506,508
124391,521,504,508
124395,509,506,503
124399,511,506,502
124403,511,508,505
124407,515,509,506
124411,515,507,508
124416,515,509,508
124420,510,512,505
124424,510,510,509
124428,513,510,510
124432,516,509,509
124435,519,511,508
124439,512,513,510
124443,515,510,511
124447,514,507,510
124451,515,508,511
124455,516,510,508
124460,512,509,510
124464,508,506,510
124468,510,500,504
124472,511,500,505
124476,513,503,507
124480,508,508,507
124484,509,511,505
124488,513,506,510
124491,515,502,511
124495,514,508,507
124499,521,512,508
124504,521,507,509
124508,512,503,510
124512,512,503,507
124516,513,507,505
124520,509,508,508
124524,513,506,510
124528,512,507,512
124532,512,509,510
124536,520,512,509
124540,514,514,506
124545,509,509,504
124548,513,505,506
124552,515,511,510
124556,513,514,502
124560,515,514,499
124564,512,509,505
124568,511,510,511
124572,512,511,509
124576,519,512,510
124580,514,511,508
124584,510,509,508
124589,512,511,511
124593,513,515,512
124597,513,517,509
124601,515,510,505
124604,511,508,507
124608,514,510,505
124612,519,512,510
124616,515,512,510
124620,516,510,511
124624,511,505,509
124628,511,505,508
124633,516,509,512
124637,515,505,509
124641,516,503,506
124645,515,502,506
124649,517,506,509
124653,518,510,510
124657,520,508,508
124660,516,504,508
124664,513,504,509
124668,515,510,510
124673,515,512,512
124677,514,508,510
124681,515,508,507
124685,517,504,504
124689,514,507,507
124693,515,509,508
124697,516,508,507
124701,516,505,507
124705,514,506,507
124709,516,508,510
124713,517,509,510
124717,516,506,509
124721,517,505,509
124725,519,507,510
124729,514,515,512
124733,512,517,515
124737,513,515,513
124741,514,514,511
124745,515,512,510
124749,515,514,512
124753,515,515,517
124758,520,512,512
124762,519,509,509
124766,516,508,510
124770,515,509,508
124773,515,508,509
124777,518,507,508
124781,516,509,507
124785,514,516,508
124789,512,517,508
124793,513,510,504
124797,510,505,505
124802,515,511,505
124806,515,514,501
124810,516,513,499
124814,517,508,503
124818,516,506,506
124822,522,508,513
124826,521,510,510
124829,516,510,507
124833,512,503,504
124837,511,499,509
124841,518,505,512
124846,519,510,515
124850,514,509,513
124854,511,506,512
124858,519,507,509
124862,521,512,512
124866,517,515,513
124870,513,514,510
124874,511,510,505
124878,514,510,505
124882,517,508,509
124886,513,507,509
124890,518,509,509
124894,513,510,510
124898,513,511,510
124902,516,511,510
124906,516,510,507
124910,516,506,504
124914,515,508,505
124918,517,513,502
124922,520,512,500
124926,523,510,504
124931,518,505,506
124935,514,504,509
124939,513,507,510
124942,518,509,510
124945,512,507,509
124949,515,505,507
124953,518,505,507
124957,516,508,507
124961,517,512,508
124965,516,511,508
124969,515,508,510
124974,517,507,508
124978,513,507,506
124982,512,508,505
124986,515,508,504
124990,518,509,507
124994,517,512,507
124998,519,514,510
125001,518,509,510
125005,517,503,509
125009,515,501,510
125014,518,503,508
125018,519,510,510
125022,518,510,511
125026,513,505,511
125030,514,502,508
125034,518,505,507
125038,522,507,507
125042,515,505,504
125046,511,501,508
125050,510,506,508
125054,509,512,505
125058,513,511,506
125062,518,503,511
125066,513,500,515
125070,516,504,516
125074,516,506,513
125078,515,509,512
125082,515,506,508
125086,514,503,508
125090,514,505,508
125094,512,508,509
125099,516,513,510
125103,510,513,510
125107,512,510,510
125111,514,510,510
125114,515,513,509
125118,517,511,506
125122,517,506,508
125126,521,504,508
125130,518,502,509
125134,515,506,510
125138,518,509,513
125143,514,504,512
125147,515,503,513
125151,515,507,512
125155,519,508,512
125159,512,507,512
125163,508,505,512
125167,512,506,511
125170,517,509,510
125174,516,511,506
125178,513,513,507
125182,513,514,508
125187,515,514,508
125191,520,517,506
125195,519,516,508
125199,515,513,508
125203,516,513,513
125207,513,510,514
125211,512,510,514
125215,516,511,511
125219,512,511,509
125223,510,511,510
125227,517,514,509
125231,517,517,511
125235,515,515,510
125239,514,513,511
125243,513,514,510
125247,510,515,509
125251,516,514,509
125255,516,510,508
125259,515,506,508
125263,513,509,512
125267,512,513,511
125272,513,512,509
125276,516,509,509
125280,521,507,508
125283,522,508,508
125287,521,514,511
125291,512,511,510
125295,509,506,511
125299,511,505,512
125303,513,507,511
125307,517,510,506
125312,519,509,501
125316,516,504,505
125320,515,506,508
125324,514,510,508
125328,514,511,511
125332,519,513,513
125336,523,512,511
125339,513,510,511
125343,519,509,508
125347,521,511,506
125351,521,511,509
125356,516,508,513
125360,518,509,512
125364,521,508,509
125368,517,512,511
125372,515,513,504
125376,513,510,501
125380,516,512,520
125384,520,513,517
125388,519,510,512
125392,515,507,513
125395,512,506,514
125400,513,508,515
125404,515,510,516
125408,516,510,518
125412,517,506,515
125416,516,506,512
125420,516,511,511
125424,516,516,512
125428,517,512,516
125432,516,508,510
125436,516,506,511
125441,520,507,507
125445,517,508,506
125449,519,508,509
125452,524,507,508
125456,520,512,513
125460,515,513,516
125464,516,509,514
125468,515,505,511
125472,515,500,504
125476,518,503,505
125480,518,509,516
125485,522,510,513
125489,513,507,510
125493,507,505,510
125497,513,510,514
125501,515,515,512
125505,515,511,505
125508,514,506,506
125512,516,510,512
125516,518,511,512
125520,520,511,516
125524,518,504,514
125529,516,500,510
125533,516,499,503
125537,518,505,498
125541,517,513,512
125545,517,509,516
125549,517,508,511
125553,519,505,497
125557,518,507,491
125561,520,515,508
125564,519,516,512
125569,519,513,511
125573,526,513,515
125577,524,515,514
125581,516,509,502
125585,517,510,499
125589,505,518,516
125593,506,518,506
125597,510,502,477
125601,512,518,515
125605,512,512,518
125609,511,498,497
125614,515,508,485
125618,510,503,501
125621,516,515,521
125625,514,534,539
125629,514,544,529
125633,520,502,514
125637,523,501,505
125641,518,495,482
125645,513,495,483
125649,518,507,522
125654,519,504,513
125658,523,494,508
125662,515,494,507
125666,511,496,497
125670,514,494,477
125674,520,506,496
125677,514,517,519
125681,509,507,509
125685,503,514,492
125689,510,517,503
125693,513,510,512
125698,521,496,505
125702,512,502,515
125706,510,511,530
125710,519,514,531
125714,515,517,517
125718,512,509,510
125722,518,498,504
125726,526,515,512
125730,520,509,521
125733,522,504,508
125737,519,502,524
125742,513,511,534
125746,495,511,518
125750,504,496,503
125754,507,491,503
125758,513,496,494
125762,512,511,509
125766,507,520,533
125770,505,511,535
125774,510,514,531
125778,511,490,527
125783,510,481,529
125787,518,488,518
125790,523,505,507
125794,520,512,529
125798,508,509,545
125802,503,493,528
125806,537,502,533
125810,547,514,543
125814,531,497,535
125818,515,497,531
125822,505,503,531
125827,514,514,525
125831,531,515,538
125835,514,514,550
125839,505,506,535
125843,511,495,524
125846,519,501,532
125850,515,498,524
125854,520,505,525
125858,507,516,538
125862,509,512,535
125867,516,497,506
125871,514,496,530
125875,510,516,546
125879,522,514,543
125883,490,518,549
125887,500,533,574
125891,512,534,556
125895,499,514,512
125899,512,504,503
125902,511,513,514
125906,518,510,539
125911,501,494,533
125915,507,530,583
125919,514,537,586
125923,530,511,523
125927,522,492,444
125931,518,460,440
125935,523,479,443
125939,527,508,485
125943,495,506,529
125947,500,520,566
125952,502,531,582
125956,495,529,545
125959,512,503,493
125963,520,498,469
125967,524,515,473
125971,504,522,506
125975,503,508,507
125979,515,534,515
125983,531,545,514
125987,533,530,504
125991,523,543,532
125996,510,508,501
126000,502,490,481
126004,504,487,474
126008,525,501,499
126012,527,542,562
126015,511,525,536
126019,511,513,503
126023,515,508,503
126027,514,501,457
126031,520,499,468
126035,517,510,498
126040,511,491,479
126044,509,469,465
126048,526,505,481
126052,511,520,496
126056,512,521,525
126060,515,522,540
126064,513,541,522
126068,514,522,526
126071,507,532,534
126075,527,495,508
126080,547,513,510
126084,532,504,484
126088,506,473,458
126092,499,475,475
126096,502,512,529
126100,508,527,504
126104,522,525,493
126108,512,520,510
126112,511,507,513
126116,509,528,519
126120,514,532,509
126125,526,490,477
126128,506,482,477
126132,530,528,513
126136,528,520,516
126140,527,561,573
126144,512,483,489
126148,513,466,473
126152,510,483,467
126156,503,506,489
126160,507,531,526
126164,497,487,491
126169,502,472,477
126173,524,499,498
126177,514,523,516
126181,511,522,519
126184,513,506,491
126188,516,528,510
126192,532,532,534
126196,514,539,532
126200,505,475,475
126204,511,478,494
126209,522,541,526
126213,519,556,522
126217,523,533,498
126221,504,513,470
126225,503,485,465
126229,507,481,471
126233,518,507,490
126237,510,527,499
126240,515,527,527
126244,510,525,533
126248,516,529,514
126253,530,515,492
126257,522,483,493
126261,513,482,486
126265,506,526,524
126269,510,555,549
126273,515,514,512
126277,507,503,477
126281,511,487,474
126285,511,490,478
126289,510,523,490
126294,525,528,493
126297,507,524,502
126301,508,529,507
126305,516,523,498
126309,521,519,518
126313,504,516,502
126317,515,517,493
126321,511,529,499
126325,507,527,511
126329,508,497,506
126333,510,482,479
126338,514,487,482
126342,514,504,504
126346,517,514,502
126350,514,510,505
126353,513,510,498
126357,512,507,500
126361,519,505,512
126365,509,499,499
126369,513,513,512
126373,520,532,525
126377,518,524,516
126382,508,511,503
126386,513,514,500
126390,516,534,496
126394,516,511,488
126398,503,514,521
126402,517,501,509
126406,515,490,481
126409,516,496,492
126413,524,547,531
126417,514,532,507
126422,522,500,491
126426,522,484,484
126430,527,529,514
126434,506,522,521
126438,504,516,498
126442,512,507,506
126446,528,502,500
126450,517,504,491
126454,507,500,488
126458,497,499,486
126462,499,502,496
126466,507,480,485
126470,523,515,518
126474,521,540,537
126478,506,521,516
126482,501,505,505
126486,512,509,502
126490,518,518,500
126494,527,472,484
126498,526,503,500
126502,521,556,549
126507,533,531,528
126511,507,490,492
126515,509,504,503
126519,522,518,509
126522,512,518,507
126526,511,513,508
126530,522,493,497
126534,510,500,507
126538,493,535,539
126542,508,514,501
126546,528,488,479
126551,524,507,513
126555,514,512,499
126559,519,507,499
126563,528,528,510
126567,512,514,504
126571,508,484,492
126575,506,513,507
126578,515,515,512
126582,506,509,506
126586,515,496,491
126590,512,532,495
126595,502,529,516
126599,502,529,533
126603,502,522,507
126607,509,478,492
126611,508,485,505
126615,514,511,515
126619,518,511,502
126623,514,514,514
126627,507,508,508
126631,515,506,493
126635,508,527,524
126639,507,526,518
126643,515,484,485
126647,504,506,484
126651,517,506,508
126655,517,499,519
126659,516,516,507
126663,507,536,506
126667,509,512,496
126671,511,506,503
126675,523,532,537
126680,522,546,551
126684,506,516,493
126688,515,503,485
126691,509,497,493
126695,506,514,511
126699,509,508,504
126703,505,502,497
126707,511,521,516
126711,513,526,530
126715,519,510,514
126720,522,516,498
126724,510,492,494
126728,506,511,527
126732,508,529,523
126736,507,509,517
126740,513,513,516
126744,512,505,487
126747,502,498,489
126751,516,507,492
126755,523,514,502
126759,503,499,512
126764,517,500,518
126768,505,517,514
126772,510,504,503
126776,515,501,501
126780,523,519,513
126784,502,527,531
126788,500,502,502
126792,515,507,502
126796,526,506,491
126800,513,510,507
126803,510,515,513
126808,510,516,512
126812,511,485,491
126816,515,491,490
126820,512,498,506
126824,525,503,519
126828,512,516,527
126832,504,506,512
126836,510,491,500
126840,505,503,505
126844,505,505,490
126849,507,521,509
126853,508,510,519
126857,509,508,514
126860,511,509,498
126864,512,522,541
126868,531,514,524
126872,520,508,499
126876,510,502,494
126880,511,496,494
126884,508,508,502
126888,524,505,501
126893,522,514,509
126897,502,520,534
126901,502,516,513
126905,496,490,489
126909,506,523,500
126913,503,508,500
126916,512,503,503
126920,528,491,500
126924,518,501,501
126928,516,493,494
126932,509,514,511
126937,508,540,559
126941,513,508,520
126945,502,475,482
126949,517,510,506
126953,504,524,526
126957,502,508,496
126961,501,493,487
126965,526,487,507
126969,518,497,510
126972,513,514,513
126977,498,509,509
126981,514,501,498
126985,515,496,496
126989,511,491,497
126993,512,511,503
126997,504,516,532
127001,526,511,534
127005,518,507,514
127009,501,496,494
127013,510,489,485
127017,508,502,490
127022,507,504,496
127026,519,519,509
127029,506,531,509
127033,506,495,487
127037,510,491,478
127041,496,500,507
127045,503,502,530
127049,518,519,516
127053,517,494,505
127057,515,521,522
127062,510,507,491
127066,505,497,496
127070,505,494,500
127074,515,532,509
127078,511,494,499
127082,507,496,509
127085,528,527,512
127089,517,510,494
127093,519,511,511
127097,509,521,523
127101,506,515,509
127106,516,490,493
127110,501,489,511
127114,506,493,501
127118,507,499,491
127122,515,527,517
127126,517,501,508
127130,506,493,510
127134,504,513,513
127138,517,530,529
127141,512,518,515
127145,507,502,502
127150,513,503,504
127154,515,509,503
127158,507,516,511
127162,507,512,514
127166,514,506,505
127170,503,492,503
127174,504,516,526
127178,506,522,497
127182,509,496,491
127186,507,499,497
127191,520,500,507
127195,522,480,503
127198,510,502,519
127202,500,512,518
127206,505,502,501
127210,491,514,502
127214,503,506,514
127218,519,524,522
127222,530,495,514
127226,518,507,519
127230,497,509,525
127235,497,513,519
127239,513,497,510
127243,511,509,515
127247,516,514,507
127251,505,498,486
127254,500,504,487
127258,516,508,515
127262,511,512,511
127266,511,514,500
127270,502,499,505
127275,499,541,526
127279,499,525,500
127283,518,502,511
127287,511,489,502
127291,497,493,500
127295,498,520,511
127299,507,516,504
127303,514,500,495
127307,510,494,501
127310,507,514,532
127314,499,553,544
127319,503,531,500
127323,511,500,500
127327,509,492,505
127331,507,496,506
127335,501,498,497
127339,515,515,512
127343,516,519,514
127347,521,509,501
127351,504,513,512
127355,502,530,522
127360,505,514,516
127364,510,509,519
127367,513,517,499
127371,502,514,501
127375,507,503,519
127379,517,498,519
127383,506,513,524
127387,505,511,515
127391,509,502,505
127395,513,498,506
127399,505,518,526
127404,508,498,495
127408,510,497,493
127412,518,513,512
127416,528,547,535
127420,509,523,514
127423,498,501,497
127427,515,517,504
127431,512,518,522
127435,504,502,513
127439,500,510,517
127443,504,504,506
127448,513,506,504
127452,512,511,502
127456,510,503,501
127460,502,513,507
127464,506,500,489
127468,506,517,509
127472,514,520,517
127476,509,502,502
127479,510,510,506
127483,510,522,522
127488,505,523,525
127492,506,508,512
127496,502,507,501
127500,503,523,517
127504,512,505,505
127508,513,501,491
127512,503,512,499
127516,497,497,490
127520,490,514,513
127524,511,504,507
127528,514,502,516
127533,503,525,517
127536,505,501,512
127540,498,507,520
127544,512,508,502
127548,505,491,495
127552,499,500,510
127556,502,504,528
127560,504,504,510
127564,511,486,496
127568,507,504,504
127572,506,516,509
127577,518,510,512
127581,501,520,513
127585,510,493,498
127589,515,517,517
127592,505,521,510
127596,504,500,505
127600,498,509,523
127604,506,532,507
127608,523,511,495
127612,505,493,501
127617,498,490,492
127621,491,501,502
127625,496,526,547
127629,507,521,543
127633,527,493,495
127637,511,484,487
127641,510,498,503
127645,504,517,506
127648,503,512,504
127652,501,502,515
127656,503,495,519
127661,508,503,512
127665,516,515,503
127669,505,510,519
127673,495,500,511
127677,497,492,492
127681,508,498,497
127685,518,514,516
127689,508,510,519
127693,496,505,519
127697,503,518,519
127702,511,536,522
127705,510,501,490
127709,513,496,498
127713,500,493,503
127717,502,516,515
127721,510,528,528
127725,501,497,500
127729,501,497,505
127733,511,508,509
127737,509,503,507
127741,510,503,496
127746,512,530,515
127750,508,531,538
127754,500,501,503
127758,490,503,498
127762,505,517,516
127766,511,499,512
127770,506,511,516
127774,503,497,502
127778,507,502,510
127782,500,509,502
127787,495,510,505
127791,507,538,520
127795,519,525,526
127799,507,504,495
127803,500,495,483
127807,503,496,501
127811,505,494,510
127814,505,495,508
127818,513,498,514
127822,512,507,506
127826,500,512,506
127831,504,524,515
127835,504,506,502
127839,516,502,499
127843,507,506,510
127847,502,504,514
127851,509,522,538
127855,507,528,540
127859,497,486,497
127863,504,494,496
127867,511,500,508
127870,507,513,511
127875,502,502,494
127879,510,504,501
127883,498,520,497
127887,515,511,507
127891,506,514,514
127895,508,521,525
127899,504,518,516
127903,498,520,509
127907,499,493,509
127911,507,486,499
127916,518,523,506
127920,519,503,486
127924,509,501,493
127927,507,506,509
127931,522,502,518
127935,509,513,525
127939,508,505,524
127943,496,495,501
127947,507,505,504
127951,514,508,509
127955,503,513,500
127960,503,523,521
127964,508,527,528
127968,501,513,510
127972,498,502,496
127976,504,507,490
127980,503,494,493
127983,502,507,511
127987,508,513,518
127991,509,519,529
127995,504,505,507
128000,496,498,500
128004,507,494,505
128008,514,514,516
128012,499,488,489
128016,507,527,492
128020,507,520,537
128024,500,499,524
128028,505,504,510
128032,509,523,519
128036,511,509,505
128039,504,512,510
128043,507,533,512
128047,503,512,518
128051,507,531,533
128055,506,507,503
128059,503,496,497
128063,511,504,497
128067,517,514,495
128071,511,511,501
128075,508,493,485
128079,494,513,508
128083,487,502,513
128088,497,514,521
128092,512,529,500
128096,502,473,476
128100,500,504,502
128104,505,504,510
128108,506,525,531
128112,506,528,522
128116,516,503,500
128120,502,506,513
128124,506,531,520
128129,513,535,527
128133,510,511,521
128137,506,502,498
128141,502,507,490
128145,510,497,497
128149,526,500,515
128152,515,517,522
128155,498,527,517
128159,490,506,510
128163,496,507,505
128167,506,516,513
128172,508,507,511
128176,505,502,528
128180,500,515,517
128184,499,517,502
128188,502,506,518
128192,504,498,516
128196,507,516,510
128200,506,501,499
128204,500,527,524
128208,497,532,524
128211,498,500,498
128216,507,495,500
128220,502,531,519
128224,501,523,530
128228,504,510,519
128232,505,497,505
128236,499,517,526
128240,504,532,532
128244,507,512,517
128248,510,506,492
128252,514,498,494
128257,505,511,504
128261,505,541,527
128265,503,535,531
128268,499,509,507
128272,504,493,507
128276,512,514,507
128280,514,504,508
128284,509,516,506
128288,510,524,511
128292,499,517,495
128296,502,500,510
128301,513,503,507
128305,511,528,503
128309,499,519,513
128313,495,498,506
128317,500,516,533
128321,492,489,495
128324,500,503,497
128328,512,512,509
128332,513,546,519
128336,511,523,516
128340,512,505,501
128345,509,519,537
128349,505,518,522
128353,505,506,489
128357,507,495,502
128361,503,514,520
128365,506,507,499
128369,502,496,481
128373,504,507,496
128377,511,527,520
128380,506,524,519
128385,513,503,512
128389,513,497,503
128393,514,514,502
128397,504,541,504
128401,504,514,526
128405,515,503,540
128409,518,493,514
128413,506,508,511
128417,505,515,489
128421,497,512,481
128425,502,517,501
128430,511,489,509
128434,502,484,513
128437,505,507,537
128441,506,527,530
128445,507,480,511
128449,501,486,500
128453,502,512,509
128457,506,521,508
128461,508,527,500
128465,508,499,519
128470,503,527,520
128474,505,507,493
128478,502,502,514
128482,517,478,473
128486,510,483,467
128490,495,482,509
128493,501,514,535
128497,501,515,533
128501,502,526,522
128505,512,532,499
128509,523,494,489
128514,514,510,501
128518,508,513,532
128522,500,493,518
128526,500,503,533
128530,502,528,535
128534,500,490,499
128538,514,502,502
128542,517,494,480
128546,506,466,478
128549,497,477,504
128553,501,479,512
128558,504,511,525
128562,500,513,517
128566,508,526,506
128570,504,528,538
128574,504,510,542
128578,494,477,486
128582,498,491,494
128586,502,503,499
128590,512,535,517
128594,502,554,513
128599,503,525,498
128603,506,506,511
128606,511,511,509
128610,514,485,502
128614,504,484,505
128618,510,500,498
128622,506,543,541
128626,506,517,505
128630,514,486,478
128634,507,542,508
128638,498,534,518
128643,506,517,487
128647,516,497,484
128651,501,488,498
128655,500,487,496
128659,498,532,512
128662,505,504,503
128666,504,503,512
128670,506,533,532
128674,509,508,522
128678,514,504,523
128683,518,505,518
128687,514,525,505
128691,495,527,499
128695,499,516,504
128699,499,517,526
128703,506,529,521
128707,508,516,509
128711,519,509,515
128715,525,499,506
128718,496,539,514
128721,497,548,518
128726,497,526,527
128730,497,546,533
128734,494,512,501
128738,494,481,502
128742,504,513,507
128746,512,546,494
128750,512,541,529
128754,507,533,535
128758,511,548,509
128762,506,551,538
128766,504,460,500
128771,490,409,488
128774,496,435,493
128777,507,467,503
128781,515,480,491
128785,511,483,481
128789,504,513,525
128793,507,547,534
128797,499,546,518
128801,510,519,509
128805,511,496,505
128809,506,522,519
128814,496,509,507
128818,492,522,495
128822,495,543,521
128826,509,531,502
128830,515,534,500
128833,507,525,527
128837,505,573,567
128841,501,516,511
128845,491,459,478
128849,498,480,487
128854,510,476,491
128858,514,490,519
128862,510,495,517
128866,501,497,534
128870,504,512,510
128874,515,508,477
128878,506,507,468
128882,505,573,509
128886,513,532,492
128889,510,511,527
128893,496,468,524
128898,500,483,518
128902,498,511,524
128906,492,512,513
128910,500,528,501
128914,510,518,503
128918,515,521,522
128922,511,525,534
128926,505,511,508
128930,511,540,515
128934,517,512,501
128939,510,480,488
128943,496,483,489
128946,500,495,489
128950,513,512,514
128954,511,502,518
128958,508,512,511
128962,501,534,513
128966,505,522,516
128970,500,497,500
128974,503,558,537
128978,509,585,538
128983,509,527,531
128987,510,507,543
128991,504,495,513
128995,510,485,492
128999,504,487,506
129002,495,487,501
129006,506,519,521
129010,515,527,535
129014,509,506,505
129018,501,529,492
129022,499,553,506
129027,499,508,539
129031,511,497,542
129035,507,534,526
129039,503,503,490
129043,497,465,470
129047,504,463,485
129051,509,515,507
129055,508,538,533
129058,504,531,523
129062,510,483,485
129067,504,478,484
129071,509,504,507
129075,501,530,529
129079,507,543,535
129083,506,526,517
129087,503,498,504
129091,505,501,503
129095,506,493,507
129099,501,499,500
129103,499,485,485
129107,502,513,502
129112,500,507,513
129115,503,525,508
129119,509,502,498
129123,504,519,501
129127,506,513,522
129131,505,506,537
129135,505,554,526
129139,509,521,532
129143,502,501,502
129147,508,503,491
129152,507,499,520
129156,506,543,529
129160,501,501,497
129164,515,500,494
129168,500,494,508
129171,503,545,534
129175,501,527,522
129179,500,525,508
129183,509,489,487
129187,501,470,480
129191,506,509,493
129196,510,495,488
129200,499,506,503
129204,505,524,516
129208,509,540,520
129212,503,516,508
129216,506,508,509
129220,508,490,526
129224,512,478,513
129227,503,516,531
129231,495,495,519
129235,497,483,504
129240,503,481,489
129244,510,507,502
129248,507,516,524
129252,503,529,521
129256,505,531,507
129260,502,513,523
129264,500,512,512
129268,501,510,505
129272,506,494,521
129276,500,520,522
129281,509,523,516
129284,506,500,503
129288,507,498,499
129292,508,488,479
129296,511,501,486
129300,524,515,512
129304,514,499,507
129308,504,509,512
129312,499,537,537
129316,498,481,512
129320,508,482,501
129325,518,505,515
129329,507,494,500
129333,501,502,516
129337,499,516,503
129340,504,514,494
129343,506,502,500
129347,496,491,503
129351,500,505,522
129355,501,505,507
129359,505,496,489
129363,504,494,497
129368,507,487,495
129372,518,525,521
129376,506,570,552
129380,502,567,528
129384,497,510,505
129388,498,519,520
129392,504,505,485
129396,509,460,477
129400,506,441,478
129404,505,469,494
129409,503,524,508
129413,505,512,527
129417,510,519,549
129421,508,512,523
129425,502,483,485
129429,508,482,485
129433,503,503,488
129437,497,483,484
129441,501,486,492
129445,501,500,501
129449,501,514,503
129453,506,540,527
129456,496,512,491
129460,500,502,489
129464,507,535,528
129468,500,546,547
129472,502,525,512
129476,506,499,500
129480,511,492,501
129484,506,482,490
129488,499,498,507
129492,498,495,513
129497,502,492,498
129501,503,499,496
129505,511,510,499
129509,509,511,505
129512,508,541,537
129516,511,496,504
129520,501,484,483
129524,498,501,500
129528,506,487,486
129532,500,506,519
129537,499,547,574
129541,500,526,536
129545,496,504,494
129549,502,490,488
129553,505,491,505
129557,503,490,501
129561,502,539,521
129565,501,540,528
129568,500,495,515
129572,506,525,534
129576,509,506,510
129581,505,459,470
129585,508,462,482
129589,503,478,495
129593,504,510,509
129597,502,524,519
129601,502,499,511
129605,507,477,485
129609,504,500,494
129613,501,520,509
129617,504,507,510
129622,506,531,564
129625,503,562,560
129629,498,501,508
129633,495,492,491
129637,498,530,513
129641,496,528,509
129645,511,562,571
129649,516,569,554
129653,511,472,475
129657,501,450,468
129661,503,467,486
129666,494,495,505
129670,500,480,490
129674,503,480,497
129678,496,512,491
129681,503,512,516
129685,505,503,509
129689,507,514,509
129693,498,529,513
129697,501,494,494
129701,504,510,515
129705,510,519,539
129710,511,493,496
129714,507,491,500
129718,498,496,516
129722,499,497,503
129726,507,518,501
129730,517,518,498
129734,509,514,507
129737,507,516,495
129741,509,514,506
129745,504,533,523
129750,489,505,508
129754,485,527,510
129758,495,502,498
129762,498,477,504
129766,506,524,533
129770,508,532,524
129774,508,510,522
129778,507,509,529
129782,500,490,492
129786,503,487,481
129790,507,507,503
129794,504,516,524
129798,503,502,504
129802,506,487,473
129806,524,513,488
129810,514,556,529
129814,506,533,520
129818,499,501,504
129822,500,496,515
129826,503,507,509
129830,497,519,509
129835,502,513,521
129839,505,521,513
129843,503,515,512
129847,505,531,525
129850,499,513,521
129854,496,474,481
129858,498,490,479
129862,509,530,501
129866,504,524,507
129870,507,513,529
129874,510,517,533
129879,506,494,499
129883,501,509,507
129887,499,508,522
129891,500,498,509
129895,504,513,491
129899,514,511,499
129903,509,516,508
129906,506,515,510
129910,503,505,510
129914,503,495,503
129918,502,518,496
129923,504,497,490
129927,505,508,506
129931,505,527,523
129935,506,501,513
129939,507,495,515
129943,502,506,516
129947,501,517,505
129951,507,506,514
129955,504,508,510
129959,502,516,521
129963,506,510,513
129967,513,518,517
129971,498,530,521
129975,508,512,510
129979,505,493,481
129983,505,501,505
129987,501,515,507
129991,500,501,503
129995,517,496,505
129999,510,518,504
130003,498,508,501
130008,498,508,514
130012,503,517,528
130016,513,539,532
130019,509,506,504
130022,507,494,500
130026,502,503,499
130030,498,502,508
130034,499,506,521
130038,506,531,536
130042,508,500,508
130046,506,491,495
130051,506,509,507
130055,502,507,502
130059,506,504,484
130063,501,505,482
130067,505,519,511
130071,507,527,537
130074,510,540,548
130077,505,511,507
130081,505,504,501
130085,505,498,504
130089,498,495,510
130094,499,496,502
130098,500,510,505
130102,497,519,505
130106,505,514,504
130110,506,498,502
130114,499,489,498
130118,497,500,509
130122,504,509,532
130126,500,521,538
130130,500,528,524
130134,497,521,512
130138,504,489,500
130142,499,482,499
130146,498,487,503
130150,505,507,501
130154,502,508,502
130158,502,510,495
130162,503,513,510
130166,504,519,519
130170,505,494,516
130174,505,533,544
130179,502,527,507
130183,503,508,489
130187,517,495,494
130190,510,502,498
130194,497,516,496
130198,502,505,492
130202,508,500,513
130206,512,510,514
130210,508,514,518
130214,503,520,520
130219,505,512,523
130223,505,513,519
130227,507,526,514
130231,502,514,499
130235,500,504,488
130239,500,494,506
130243,503,516,523
130246,508,522,525
130250,510,511,506
130254,505,500,498
130258,507,503,495
130263,515,496,496
130267,509,507,511
130271,505,514,511
130275,508,530,530
130279,497,536,525
130283,509,502,499
130287,504,504,503
130291,506,487,496
130295,504,488,496
130299,507,485,501
130302,503,514,502
130307,505,522,515
130311,498,526,520
130315,497,513,501
130319,501,510,521
130323,505,521,517
130327,509,504,501
130331,507,497,497
130335,502,496,496
130339,503,490,503
130343,501,519,512
130348,508,512,499
130352,506,512,504
130356,497,516,510
130359,500,517,520
130363,508,490,510
130367,502,496,498
130371,502,512,495
130375,508,535,498
130379,509,516,505
130383,509,521,513
130387,503,519,524
130392,496,505,529
130396,498,489,496
130400,503,509,503
130404,498,517,528
130408,497,499,500
130412,498,493,488
130415,500,506,516
130419,502,521,536
130423,501,516,523
130427,504,504,501
130432,504,514,512
130436,510,499,503
130440,512,485,492
130444,514,485,497
130448,512,508,506
130452,511,501,508
130456,507,521,511
130460,511,533,515
130464,506,506,508
130468,505,506,508
130471,501,520,524
130476,500,514,515
130480,505,522,513
130484,500,529,513
130488,502,511,507
130492,506,491,506
130496,508,515,513
130500,517,515,501
130504,502,496,496
130508,501,487,498
130512,504,495,503
130516,511,515,513
130521,509,512,510
130525,506,514,529
130528,502,515,533
130532,504,511,516
130536,506,502,497
130540,506,513,509
130544,505,518,500
130548,500,518,505
130552,505,539,524
130556,514,535,491
130561,514,510,490
130565,509,483,507
130569,502,485,505
130573,505,505,515
130577,510,495,506
130581,508,491,504
130584,503,522,523
130588,503,541,546
130592,503,525,526
130596,505,507,498
130600,504,505,487
130605,510,512,494
130609,515,496,497
130613,505,508,519
130617,498,507,526
130621,497,495,512
130625,508,497,492
130629,508,526,503
130633,508,522,538
130637,506,522,509
130640,505,499,491
130644,500,483,498
130649,500,523,515
130653,508,525,510
130657,507,503,511
130661,505,505,501
130665,503,511,514
130669,498,512,517
130673,502,516,512
130677,501,509,516
130681,502,497,511
130685,503,518,524
130690,506,512,505
130694,507,510,511
130697,505,510,507
130701,503,498,494
130705,504,500,501
130709,502,511,512
130713,504,510,506
130717,501,493,497
130721,502,504,493
130725,504,489,498
130729,509,501,514
130734,514,529,547
130738,497,528,526
130742,495,503,497
130746,501,523,490
130750,503,517,514
130753,500,507,524
130756,501,513,523
130760,504,499,491
130764,505,505,495
130768,501,525,501
130772,501,537,542
130777,501,509,538
130781,505,495,506
130785,506,491,489
130789,510,489,478
130793,507,512,521
130797,507,507,521
130801,514,504,492
130805,510,505,488
130809,505,500,504
130812,500,523,519
130817,500,529,518
130821,506,516,500
130825,506,521,532
130829,505,506,526
130833,499,511,518
130837,504,509,513
130841,516,515,512
130845,515,503,501
130849,505,498,486
130853,502,504,498
130857,502,505,512
130862,507,515,524
130866,508,511,536
130869,508,523,527
130873,501,504,497
130877,506,486,481
130881,515,487,494
130885,507,510,509
130889,502,509,500
130893,504,517,512
130897,504,535,532
130902,501,510,504
130906,495,495,500
130910,499,512,522
130914,503,517,552
130918,505,521,532
130922,509,490,464
130925,513,498,490
130929,510,492,503
130933,512,478,499
130937,500,505,505
130941,502,520,515
130946,503,523,516
130950,509,526,532
130954,510,503,494
130958,513,490,482
130962,511,495,494
130966,508,491,483
130970,509,506,494
130974,510,513,505
130978,506,520,512
130981,500,518,535
130985,507,506,551
130990,509,508,512
130994,508,506,489
130998,504,510,486
131002,507,505,484
131006,504,519,504
131010,506,507,514
131014,506,502,513
131018,507,527,529
131022,508,523,517
131026,509,497,498
131031,504,505,496
131035,501,512,510
131038,507,497,516
131042,507,501,519
131046,506,502,514
131050,503,522,529
131054,504,522,511
131058,506,501,493
131062,506,498,492
131066,500,504,500
131070,509,506,504
131075,511,504,502
131079,508,503,495
131083,501,501,496
131087,498,516,518
131091,521,514,521
131094,518,514,513
131098,499,520,528
131102,493,517,526
131106,494,513,515
131110,497,516,504
131115,499,508,489
131119,504,531,510
131123,507,527,529
131127,507,513,509
131131,511,495,492
131135,507,498,497
131139,505,500,507
131143,506,510,521
131147,507,502,504
131150,506,497,498
131154,512,501,504
131159,520,494,494
131163,499,505,512
131167,493,515,518
131171,496,516,515
131175,497,526,534
131179,505,503,517
131183,509,499,491
131187,512,501,500
131191,512,505,508
131195,507,505,507
131200,508,503,510
131204,509,498,505
131207,510,504,505
131211,508,508,502
131215,500,512,512
131219,500,504,512
131223,501,505,505
131227,500,511,505
131231,502,509,509
131235,507,500,508
131239,505,493,505
131244,506,499,510
131248,510,510,507
131252,510,511,504
131256,502,511,502
131260,504,520,493
131263,508,512,500
131267,506,506,506
131271,506,502,506
131275,507,498,504
131279,504,497,502
131283,511,503,498
131288,511,513,498
131292,503,519,498
131296,504,508,504
131300,510,499,507
131304,512,499,502
131308,510,502,504
131312,509,503,504
131316,509,505,503
131319,507,515,506
131323,508,520,502
131328,509,518,506
131332,505,509,505
131336,505,503,501
131340,502,504,502
131344,507,505,500
131348,508,505,498
131352,500,505,500
131356,505,501,502
131360,506,504,501
131364,508,507,503
131368,509,508,502
131373,503,501,500
131376,503,500,498
131380,506,506,501
131384,505,511,502
131388,507,513,503
131392,510,510,504
131396,506,508,503
131400,502,512,501
131404,505,520,497
131408,505,520,502
131412,508,510,499
131417,507,510,498
131421,508,508,492
131425,510,509,496
131429,504,511,497
131432,500,510,495
131436,502,510,496
131440,509,515,499
131444,509,517,500
131448,504,518,499
131452,505,514,494
131457,498,511,499
131461,504,512,502
131465,505,514,504
131469,506,512,505
131473,509,513,507
131477,508,516,509
131481,506,518,510
131485,514,517,511
131488,506,515,510
131492,504,514,509
131496,505,517,508
131501,501,520,509
131505,508,518,505
131509,507,515,501
131513,501,514,502
131517,507,516,505
131521,509,516,504
131525,509,519,504
131529,507,512,508
131533,505,511,508
131537,506,513,508
131542,507,514,507
131545,508,512,504
131549,508,514,506
131553,500,518,505
131557,507,519,508
131561,510,519,505
131565,515,520,502
131569,511,513,504
131573,508,511,507
131577,506,515,509
131581,507,515,509
131586,509,517,510
131590,510,518,505
131594,508,517,505
131598,508,519,516
131601,503,515,521
131604,499,511,505
131608,504,505,496
131612,504,512,515
131616,506,515,524
131620,513,516,521
131624,504,511,518
131629,502,511,515
131633,508,513,509
131637,507,513,508
131641,507,511,511
131645,501,514,513
131649,503,515,510
131653,508,515,508
131657,508,514,507
131660,509,513,506
131664,507,513,507
131668,501,515,505
131673,503,516,505
131677,501,518,504
131681,511,508,506
131685,513,507,509
131689,508,514,516
131693,503,515,510
131697,511,516,505
131701,505,513,510
131705,504,514,506
131709,504,510,495
131713,506,507,501
131716,506,512,507
131720,504,514,516
131724,505,513,511
131728,510,514,522
131732,507,515,521
131736,508,513,517
131740,511,513,514
131744,507,513,511
131748,511,513,510
131752,510,514,509
131757,511,511,506
131761,511,508,506
131765,518,510,508
131769,511,510,507
131772,503,509,507
131776,507,506,508
131780,510,505,505
131784,506,504,506
131788,504,509,512
131792,510,510,508
131796,513,509,508
131801,508,511,509
131805,509,511,503
131809,507,512,499
131813,506,514,511
131817,506,514,509
131821,509,505,507
131825,507,506,512
131828,511,515,520
131832,503,514,519
131836,502,511,518
131841,508,511,516
131845,512,516,513
131849,506,517,512
131853,505,516,515
131857,505,513,512
131861,503,515,507
131865,510,518,511
131869,511,520,512
131873,509,517,515
131877,510,513,515
131881,513,512,512
131885,515,515,512
131889,509,514,511
131893,505,510,508
131897,506,511,508
131901,513,515,508
131905,512,513,504
131909,507,509,509
131913,509,508,507
131917,507,512,505
131921,507,514,510
131926,502,515,511
131930,508,510,505
131934,506,506,511
131938,505,506,512
131941,509,507,510
131945,507,509,512
131949,509,510,513
131953,511,507,510
131957,509,506,507
131961,506,511,511
131965,510,515,513
131970,511,512,512
131974,516,506,511
131978,508,505,509
131982,511,508,511
131986,511,510,512
131990,509,511,511
131994,503,514,511
131997,506,511,511
132001,504,507,511
132005,504,507,508
132009,505,506,508
132014,506,509,511
132018,509,512,508
132022,510,512,511
132026,510,508,509
132030,506,506,512
132034,507,508,513
132038,507,512,510
132042,508,515,510
132046,508,512,511
132050,508,507,509
132054,510,510,508
132058,507,511,511
132062,509,511,510
132066,510,511,512
132070,509,510,516
132074,507,511,516
132078,509,513,513
132082,509,510,510
132086,507,508,512
132090,509,508,513
132094,510,509,513
132099,509,512,509
132103,507,510,510
132107,504,507,512
132110,505,507,512
132114,508,511,513
132118,510,508,511
132122,510,503,509
132126,508,501,509
132130,506,506,509
132134,509,514,514
132139,509,517,518
132143,506,512,519
132147,506,511,518
132151,505,513,516
132155,507,510,516
132159,508,509,517
132163,505,505,517
132166,511,504,515
132170,509,509,516
132174,508,512,515
132178,507,512,514
132183,507,514,516
132187,507,514,515
132191,508,514,516
132195,508,516,514
132199,508,516,512
132203,503,515,514
132207,504,511,512
132211,506,508,512
132215,510,506,511
132219,509,505,514
132222,511,506,516
132226,513,508,517
132230,509,510,517
132234,511,511,516
132238,511,508,514
132242,513,505,516
132246,508,508,517
132250,507,510,517
132254,505,514,517
132258,507,513,515
132262,507,515,515
132267,506,514,514
132271,509,516,516
132275,509,513,515
132279,506,509,518
132282,503,505,514
132286,510,506,513
132290,513,509,513
132294,513,507,512
132298,512,503,511
132302,506,504,512
132306,504,508,512
132311,510,509,509
132315,507,506,515
132319,506,505,517
132323,507,505,512
132327,512,511,510
132331,515,514,509
132335,507,512,510
132338,501,510,509
132342,504,513,509
132346,507,513,512
132350,509,513,513
132355,507,509,513
132359,506,506,512
132363,505,507,509
132367,505,510,510
132371,507,510,512
132375,506,509,514
132379,508,507,513
132383,508,506,513
132387,507,508,510
132391,508,507,510
132395,507,507,515
132399,503,509,515
132403,507,512,514
132407,513,514,513
132411,508,510,512
132415,504,504,510
132419,504,506,509
132423,508,513,508
132427,506,513,508
132431,504,510,513
132435,504,506,510
132440,508,507,511
132444,506,510,515
132448,507,512,514
132451,507,511,513
132455,513,509,514
132459,511,509,513
132463,512,510,513
132467,510,512,513
132471,508,511,510
132475,504,510,510
132480,509,511,513
132484,509,510,515
132488,506,508,514
132492,508,506,510
132496,506,506,510
132500,508,509,508
132504,512,511,508
132507,513,511,508
132511,511,511,510
132515,509,512,509
132519,514,516,509
132524,512,516,510
132528,514,510,511
132532,516,508,512
132536,509,510,513
132540,512,513,512
132544,511,512,512
132548,511,506,509
132552,510,504,510
132556,512,506,509
132560,509,508,507
132563,506,507,507
132568,507,505,507
132572,507,506,508
132576,509,508,509
132580,509,511,510
132584,505,512,510
132588,508,509,512
132592,507,507,514
132596,510,509,513
132600,512,513,513
132604,508,509,511
132609,507,507,509
132613,509,509,508
132617,509,512,510
132620,510,511,511
132624,506,507,512
132628,510,503,513
132632,509,504,511
132636,509,509,510
132640,514,514,513
132644,509,507,512
132648,502,501,511
132653,505,507,512
132657,507,513,513
132661,509,512,512
132665,507,506,508
132669,506,504,512
132673,511,507,508
132676,510,510,507
132680,507,510,505
132684,510,508,504
132688,508,506,507
132692,512,506,506
132697,511,511,507
132701,511,511,506
132705,508,504,507
132709,508,502,510
132713,510,505,509
132717,510,509,508
132721,509,508,510
132725,509,508,513
132729,512,503,510
132732,512,506,509
132737,510,507,508
132741,507,504,508
132745,502,503,509
132749,509,505,509
132753,509,508,510
132757,506,509,510
132761,503,509,511
132765,502,510,510
132769,509,508,506
132773,511,508,505
132777,503,510,509
132782,505,512,513
132786,511,514,511
132789,512,512,510
132793,510,510,509
132797,509,506,507
132801,508,504,505
132805,508,507,508
132809,517,509,512
132813,514,507,514
132817,509,506,512
132822,507,506,510
132826,504,507,511
132830,504,507,511
132834,507,509,513
132838,509,505,511
132842,514,504,509
132845,516,506,508
132849,509,507,508
132853,508,505,506
132857,506,503,508
132861,506,505,509
132866,508,510,510
132870,510,512,514
132874,507,509,514
132878,510,510,514
132882,510,508,511
132886,510,508,510
132890,512,510,509
132894,511,511,508
132898,507,507,510
132901,505,504,508
132905,505,504,511
132910,507,502,510
132914,507,502,509
132918,509,501,510
132922,508,500,509
132926,511,503,508
132930,511,504,510
132934,507,502,510
132938,505,502,511
132942,505,505,512
132946,506,507,511
132951,506,506,511
132955,506,504,510
132958,505,504,510
132961,508,504,512
132965,509,508,510
132969,508,510,509
132973,504,509,509
132977,503,506,508
132981,510,506,509
132985,515,507,508
132989,512,508,509
132994,507,510,510
132998,509,510,508
133002,514,514,510
133006,513,516,510
133010,515,510,510
133013,512,509,511
133017,514,514,512
133021,510,517,510
133025,509,513,511
133029,511,509,511
133033,508,509,510
133038,510,512,508
133042,509,516,510
133046,508,519,511
133050,508,515,513
133054,508,509,510
133058,511,510,507
133062,507,514,508
133066,507,514,508
133069,505,511,509
133073,507,510,510
133078,511,511,510
133082,514,514,510
133086,515,515,509
133090,509,513,511
133094,508,513,509
133098,509,514,507
133102,507,516,506
133106,511,513,503
133110,509,513,505
133114,507,513,505
133118,507,514,506
133123,512,515,509
133126,507,513,512
133130,507,511,511
133134,509,509,509
133138,505,508,510
133142,507,508,510
133146,504,507,510
133150,504,505,510
133154,504,509,508
133158,510,512,507
133163,510,510,507
133167,510,510,509
133171,509,511,511
133175,512,512,510
133179,510,515,512
133182,510,512,510
133185,508,509,508
133189,511,508,508
133193,509,511,508
133197,508,514,509
133201,506,507,509
133206,506,503,510
133210,508,507,509
133214,508,511,508
133218,504,511,510
133222,508,509,512
133226,506,506,512
133230,507,505,511
133234,507,502,505
133238,508,504,504
133241,509,504,505
133245,514,507,506
133250,515,506,507
133254,510,506,507
133258,507,507,506
133262,506,504,506
133266,507,505,508
133270,510,509,509
133274,510,511,509
133278,508,506,508
133282,507,503,508
133286,505,504,510
133291,504,508,511
133295,505,509,510
133298,504,507,509
133302,504,508,508
133306,506,507,506
133310,507,507,509
133314,511,508,510
133318,511,507,511
133322,507,506,510
133326,507,507,509
133330,509,510,510
133335,510,513,510
133339,509,510,508
133343,508,509,510
133347,503,509,510
133351,511,512,512
133354,512,511,510
133358,510,508,508
133362,502,505,508
133366,510,507,509
133370,506,509,512
133374,507,507,510
133379,509,506,508
133383,504,508,508
133387,506,513,508
133391,508,517,507
133395,507,513,505
133399,504,510,506
133403,505,510,508
133407,508,513,508
133410,508,513,507
133414,508,509,509
133419,508,506,513
133423,505,507,509
133427,506,509,510
133431,509,510,511
133435,506,508,510
133439,509,508,508
133443,512,512,509
133447,513,513,510
133451,509,511,511
133455,502,509,510
133459,502,507,509
133464,510,510,509
133467,508,516,508
133471,506,513,509
133475,503,510,512
133479,507,511,510
133483,511,513,508
133487,508,514,509
133491,509,512,511
133495,513,510,513
133499,506,509,511
133504,505,511,510
133508,506,510,511
133512,507,507,512
133516,506,509,514
133520,508,512,517
133523,511,513,515
133527,510,512,514
133531,509,509,512
133535,511,507,511
133539,508,507,509
133543,510,511,510
133548,508,513,512
133552,504,511,511
133556,507,507,509
133560,508,508,511
133564,508,511,511
133568,509,512,509
133572,504,509,508
133576,507,506,508
133579,508,509,506
133583,508,513,508
133587,504,508,511
133592,503,505,512
133596,506,509,511
133600,509,510,509
133604,509,509,508
133608,510,508,508
133612,507,506,507
133616,508,508,508
133620,507,512,510
133624,510,511,508
133628,509,507,507
133633,506,504,508
133636,508,508,508
133640,509,511,507
133644,506,511,504
133648,506,508,501
133652,510,504,504
133656,510,504,510
133660,505,507,511
133664,499,506,509
133668,503,504,509
133672,499,505,512
133677,504,506,512
133681,507,509,513
133685,507,508,510
133689,508,510,510
133692,506,513,512
133696,510,512,515
133700,510,514,514
133704,507,513,514
133708,510,513,514
133712,511,516,512
133716,509,518,512
133721,510,517,511
133725,510,510,510
133729,509,509,511
133733,506,512,509
133737,507,512,508
133741,507,509,508
133745,507,507,508
133748,506,506,507
133752,509,508,504
133756,511,507,505
133761,509,509,505
133765,504,511,504
133769,505,509,506
133773,506,509,507
133777,507,510,505
133781,507,509,502
133785,510,506,503
133789,511,505,505
133793,511,505,506
133797,511,503,506
133801,512,499,503
133805,511,500,505
133809,505,504,506
133813,504,508,506
133817,506,509,505
133821,507,507,503
133825,509,506,505
133829,509,509,504
133833,511,512,504
133837,506,510,506
133841,509,508,513
133846,509,507,514
133850,510,511,515
133854,505,516,515
133858,505,512,514
133861,506,504,513
133865,509,503,513
133869,513,507,510
133873,513,507,507
133877,508,504,508
133881,504,502,509
133885,503,504,512
133890,501,509,514
133894,506,511,514
133898,503,508,511
133902,503,503,508
133906,508,505,512
133910,514,509,511
133914,513,510,509
133917,509,507,508
133920,508,504,507
133924,510,507,507
133928,510,513,506
133933,509,514,507
133937,507,510,510
133941,508,507,512
133945,510,509,513
133949,510,511,510
133953,508,510,509
133957,510,509,504
133961,505,507,505
133965,504,510,510
133969,507,511,509
133974,508,507,508
133978,506,507,507
133982,507,510,507
133986,509,514,504
133990,509,512,504
133994,507,507,504
133998,505,505,504
134002,504,507,505
134006,510,510,506
134010,510,512,506
134014,507,508,505
134019,506,506,505
134023,506,507,505
134027,507,508,507
134030,506,509,505
134033,512,509,507
134037,505,506,509
134041,503,508,506
134045,504,510,504
134049,508,508,503
134053,507,509,504
134057,505,509,506
134062,506,511,507
134066,508,512,508
134070,508,512,512
134074,510,509,511
134078,507,509,509
134082,507,510,510
134085,507,512,508
134088,508,508,508
134092,510,505,509
134096,510,506,511
134100,510,510,510
134105,505,512,509
134109,510,510,509
134113,509,511,509
134117,511,517,509
134121,512,518,509
134125,507,516,508
134129,506,509,507
134133,510,508,506
134137,511,511,504
134141,507,514,505
134145,505,514,505
134149,507,510,506
134153,508,509,507
134157,511,511,506
134161,512,511,507
134165,512,513,508
134169,511,513,510
134173,511,511,512
134177,513,512,513
134181,511,511,511
134185,508,507,508
134190,505,506,508
134194,511,507,509
134198,515,511,509
134201,509,512,508
134205,507,508,508
134209,507,507,510
134213,511,508,508
134217,512,513,508
134221,509,512,509
134225,507,507,507
134230,509,506,505
134234,508,508,506
134238,509,510,504
134242,510,511,506
134246,507,509,506
134250,508,507,505
134254,508,507,507
134257,508,509,506
134261,511,510,505
134265,511,511,506
134269,510,510,506
134274,508,512,506
134278,505,510,506
134282,507,506,504
134286,505,505,507
134290,506,508,511
134294,510,512,512
134298,512,510,509
134302,510,506,510
134306,507,505,511
134310,508,508,510
134313,509,513,509
134318,508,512,508
134322,506,506,508
134326,506,506,510
134330,505,506,508
134334,512,510,507
134338,510,509,508
134342,505,509,513
134346,507,508,515
134350,510,505,515
134354,507,503,512
134359,505,500,509
134363,504,499,509
134367,507,502,511
134370,508,507,513
134374,505,508,509
134378,505,509,509
134382,504,506,510
134386,509,505,512
134390,512,507,510
134394,511,509,510
134398,509,508,511
134403,509,507,509
134407,506,506,507
134411,511,507,507
134415,509,509,508
134419,514,509,506
134423,512,508,507
134426,512,507,507
134430,510,510,504
134434,505,512,504
134438,504,514,509
134443,505,512,510
134447,507,512,508
134451,510,513,505
134455,508,510,506
134459,506,507,508
134463,509,507,509
134467,509,511,507
134471,510,513,510
134475,507,509,508
134479,505,510,509
134482,507,512,508
134487,509,512,506
134491,510,509,505
134495,508,506,506
134499,508,510,508
134503,506,514,507
134507,503,517,512
134511,508,513,512
134515,504,509,510
134519,501,506,508
134523,506,506,506
134528,504,511,508
134532,504,513,508
134536,500,512,508
134539,504,506,509
134543,508,503,512
134547,510,506,511
134551,506,508,509
134555,508,506,507
134559,512,507,506
134563,510,511,507
134567,508,514,510
134572,507,509,509
134576,505,508,508
134580,506,508,511
134584,509,512,511
134588,510,510,510
134592,507,508,511
134595,505,505,507
134599,505,508,504
134603,507,513,505
134607,508,509,508
134611,505,502,507
134616,505,502,506
134620,506,505,509
134624,508,509,511
134628,508,507,510
134632,504,503,507
134636,505,502,505
134640,509,504,506
134644,506,507,507
134648,508,508,507
134651,509,507,506
134656,512,509,507
134660,514,510,510
134664,512,511,510
134668,508,505,506
134672,503,502,508
134676,503,504,509
134680,511,510,511
134684,509,513,511
134688,505,510,511
134692,504,506,511
134696,507,508,508
134701,507,511,507
134705,507,511,506
134708,507,509,504
134712,509,512,507
134716,513,514,511
134720,513,513,512
134724,507,509,511
134728,507,506,509
134732,511,507,509
134736,509,509,509
134740,510,510,507
134745,503,509,506
134749,502,508,506
134753,507,507,507
134757,507,510,506
134761,505,513,507
134764,504,512,508
134768,506,511,509
134772,508,512,510
134776,506,513,512
134780,503,512,511
134785,504,509,508
134789,508,506,506
134793,510,506,507
134797,510,508,505
134801,506,508,507
134805,507,503,505
134809,512,504,507
134813,509,509,509
134817,504,513,509
134820,503,513,508
134824,506,511,510
134829,509,512,509
134833,500,511,508
134837,506,511,509
134841,505,512,510
134845,510,512,508
134849,513,512,507
134853,513,516,508
134857,510,516,509
134861,507,508,507
134865,505,502,505
134870,508,504,505
134874,507,510,506
134877,510,513,504
134880,510,509,507
134884,511,505,508
134888,513,506,510
134892,511,508,508
134896,507,508,506
134900,505,506,506
134904,508,505,509
134908,502,504,509
134913,507,508,511
134917,508,509,513
134921,506,508,512
134925,508,510,510
134929,511,511,511
134933,514,512,512
134936,509,510,511
134940,508,504,510
134944,511,501,510
134948,509,506,508
134952,511,513,508
134957,509,514,509
134961,508,512,513
134965,508,512,512
134969,513,514,510
134973,509,512,509
134977,506,509,512
134981,507,509,511
134985,506,509,513
134988,509,513,514
134991,512,511,512
134995,508,509,511
135000,504,513,513
135004,510,513,512
135008,509,511,512
135012,502,508,512
135016,503,507,511
135020,507,510,510
135024,513,511,511
135028,507,513,515
135032,506,513,513
135036,503,510,511
135041,505,511,512
135045,508,517,511
135048,509,518,510
135052,509,512,513
135056,510,509,512
135060,511,512,511
135064,509,514,509
135068,509,512,509
135072,507,507,507
135076,506,507,503
135080,506,505,507
135085,514,510,511
135089,512,512,509
135093,509,509,511
135097,508,505,510
135101,504,506,507
135104,510,511,506
135108,512,513,509
135112,508,510,512
135116,506,512,512
135120,509,514,512
135124,513,513,508
135129,517,510,506
135133,510,511,508
135137,505,511,508
135141,507,511,509
135145,508,512,509
135149,507,511,508
135153,506,507,513
135157,506,506,512
135160,507,507,511
135164,512,506,509
135169,509,505,507
135173,508,507,510
135177,509,511,511
135181,511,513,512
135185,501,515,512
135189,501,511,510
135193,512,506,510
135197,511,507,510
135201,507,512,509
135205,511,512,510
135209,512,513,508
135214,508,511,504
135217,508,508,508
135221,507,510,509
135225,504,512,510
135229,506,506,509
135233,508,507,509
135237,508,506,504
135241,507,504,507
135245,509,504,506
135249,509,505,507
135254,513,507,508
135258,511,510,511
135262,508,511,512
135266,507,506,509
135270,509,506,508
135273,510,508,506
135277,513,511,507
135281,507,511,506
135285,507,507,509
135289,505,507,510
135293,506,510,509
135298,508,515,507
135302,504,513,505
135306,507,508,503
135310,508,504,505
135314,509,502,506
135318,509,506,505
135322,503,506,506
135326,504,504,507
135329,506,505,512
135333,509,510,510
135337,507,515,505
135342,504,508,511
135346,505,503,511
135350,502,504,510
135354,506,509,509
135358,509,511,507
135362,509,510,507
135366,505,507,508
135370,507,506,509
135374,506,507,508
135378,503,508,506
135383,504,507,508
135386,505,505,503
135390,508,509,504
135394,507,510,505
135398,505,508,503
135402,501,503,502
135406,502,506,505
135410,507,509,506
135414,508,510,508
135418,508,510,508
135422,507,507,505
135427,510,507,510
135431,508,510,510
135435,513,507,511
135439,508,502,509
135442,507,502,509
135446,509,504,508
135450,509,509,508
135454,510,509,509
135458,509,506,506
135462,510,505,503
135467,508,506,506
135471,508,506,507
135475,511,503,509
135479,510,498,508
135483,506,499,507
135487,507,506,509
135491,510,513,510
135495,508,512,508
135498,513,509,512
135502,504,507,512
135506,505,507,510
135511,511,508,509
135515,511,507,507
135519,508,508,505
135523,507,508,509
135527,506,512,511
135531,512,512,511
135535,511,510,510
135539,510,506,509
135543,511,507,507
135547,511,513,508
135552,505,515,507
135555,505,513,510
135559,504,509,509
135563,506,507,508
135567,509,510,509
135571,511,509,506
135575,505,509,503
135579,509,511,504
135583,509,513,507
135587,510,511,505
135591,504,507,503
135596,505,507,504
135600,507,506,503
135604,509,506,503
135608,506,508,503
135611,512,508,503
135615,516,506,504
135619,513,508,505
135623,509,510,503
135627,513,511,507
135631,509,508,508
135635,508,507,509
135640,504,505,508
135644,508,509,507
135648,510,512,507
135652,508,509,507
135656,507,509,506
135660,509,510,508
135664,512,508,508
135667,509,508,511
135671,509,506,509
135675,509,504,506
135680,508,508,508
135684,508,510,509
135688,509,507,510
135692,510,504,510
135696,509,503,511
135700,508,506,512
135704,509,509,513
135708,503,505,512
135712,509,503,510
135716,509,501,513
135720,511,503,512
135724,512,505,510
135728,509,502,509
135732,504,501,513
135736,506,508,515
135740,508,508,513
135744,508,504,509
135748,504,502,508
135752,508,503,510
135756,515,506,509
135760,516,511,508
135764,511,514,509
135769,506,510,509
135773,505,506,512
135777,508,506,514
135780,514,508,514
135784,512,509,514
135788,507,507,513
135792,509,506,511
135796,511,507,509
135800,511,510,511
135804,506,508,510
135809,504,504,510
135813,503,506,512
135817,508,508,511
135821,508,507,515
135825,506,504,516
135829,507,502,513
135833,506,507,512
135836,505,512,510
135840,505,514,510
135844,507,511,511
135848,509,510,511
135853,510,512,511
135857,508,513,510
135861,506,515,510
135865,503,511,508
135869,510,510,508
135873,508,511,508
135877,508,512,507
135881,508,509,507
135885,510,510,507
135889,511,510,506
135892,511,513,503
135897,506,514,501
135901,506,514,507
135905,510,509,511
135909,508,508,510
135913,507,511,511
135917,506,513,513
135921,507,511,513
135925,502,508,510
135929,509,510,511
135933,510,512,510
135938,507,513,507
135942,506,511,507
135946,506,511,507
135949,502,518,508
135953,507,519,509
135957,508,513,510
135961,506,507,511
135965,507,506,510
135969,508,509,512
135973,511,512,508
135977,512,511,508
135982,505,506,505
135986,505,505,505
135990,507,511,506
135994,507,517,505
135998,506,517,503
136002,501,515,505
136005,503,512,505
136009,510,513,504
136013,512,517,502
136017,508,514,503
136022,507,511,502
136026,506,512,501
136030,504,516,503
136034,505,517,505
136038,508,513,503
136042,505,512,503
136046,507,512,504
136050,504,514,506
136054,510,515,503
136058,507,510,502
136061,507,514,503
136066,504,509,508
136070,512,506,508
136074,508,507,508
136078,509,506,506
136082,509,504,504
136086,509,504,506
136090,509,505,508
136094,507,502,509
136098,507,499,509
136102,507,500,511
136107,508,505,513
136111,510,506,515
136115,510,500,512
136118,505,498,507
136121,505,502,505
136125,509,506,510
136129,509,505,513
136133,506,500,511
136137,505,501,511
136141,507,504,513
136145,512,504,510
136150,502,504,509
136154,502,502,508
136158,505,506,509
136162,509,509,508
136166,505,507,508
136170,503,502,507
136174,502,501,507
136177,504,504,505
136181,504,508,504
136185,502,512,506
136189,507,514,506
136194,508,505,504
136198,506,502,507
136202,507,504,505
136206,508,506,503
136210,508,504,506
136214,503,504,506
136218,504,508,508
136222,510,513,509
136226,507,513,510
136230,507,507,510
136233,511,506,510
136238,514,513,510
136242,510,515,508
136246,508,515,505
136250,504,514,505
136254,501,510,508
136258,503,511,508
136262,507,513,510
136266,507,512,509
136270,509,508,509
136274,505,510,506
136279,506,510,507
136283,508,513,514
136287,506,511,514
136290,505,509,508
136294,509,507,501
136298,508,512,504
136302,514,515,512
136306,503,513,510
136310,504,510,511
136314,503,511,513
136318,509,512,512
136323,508,509,508
136327,508,508,509
136331,509,507,508
136335,512,512,507
136339,510,514,509
136343,508,511,510
136346,503,507,507
136350,502,507,504
136354,506,511,500
136358,511,515,506
136363,508,511,511
136367,503,509,510
136371,511,510,502
136375,518,513,493
136379,516,517,488
136383,514,513,498
136387,512,509,513
136391,509,510,512
136395,505,517,512
136399,506,521,518
136402,503,522,511
136407,502,518,503
136411,503,521,508
136415,504,523,527
136419,508,521,524
136423,517,516,515
136427,510,514,506
136431,508,523,512
136435,504,533,511
136439,504,523,511
136443,503,515,517
136448,502,521,514
136452,510,513,513
136456,515,505,512
136459,506,507,505
136463,500,507,507
136467,506,511,508
136471,510,516,509
136475,516,524,521
136479,510,510,494
136483,507,525,510
136487,517,514,511
136492,518,504,507
136496,513,495,518
136500,515,495,515
136504,513,501,511
136508,499,512,518
136512,517,505,520
136515,525,516,512
136519,525,496,491
136523,507,517,488
136527,506,513,506
136531,502,507,524
136536,508,504,543
136540,522,498,539
136544,508,489,524
136548,501,480,508
136552,508,482,496
136556,503,508,502
136560,505,526,505
136564,499,511,493
136568,496,496,495
136571,497,513,545
136576,500,507,536
136580,504,507,522
136584,518,482,512
136588,518,481,511
136592,506,510,531
136596,496,503,544
136600,504,505,535
136604,515,513,534
136608,528,525,561
136612,522,494,545
136616,520,493,546
136621,516,525,557
136625,527,534,545
136628,525,522,529
136632,506,491,538
136636,498,484,553
136640,506,496,520
136644,495,525,549
136648,515,514,569
136652,525,512,547
136656,506,464,522
136660,498,457,532
136665,516,485,528
136669,528,487,505
136673,503,528,548
136677,515,533,548
136681,518,545,554
136684,529,515,541
136688,514,507,549
136692,499,490,528
136696,522,464,507
136700,528,532,544
136705,527,527,550
136709,512,508,539
136713,496,514,569
136717,510,526,569
136721,548,516,527
136725,521,515,514
136729,479,489,532
136733,489,486,544
136737,498,528,564
136740,497,500,535
136743,510,521,545
136748,522,501,531
136752,531,494,505
136756,516,503,490
136760,501,514,511
136764,515,501,529
136768,530,501,520
136772,516,518,543
136776,501,520,533
136780,500,534,533
136784,499,523,539
136788,510,495,518
136793,497,458,508
136796,501,497,528
136799,516,513,510
136803,535,524,508
136807,491,499,508
136811,476,485,515
136815,499,513,517
136819,520,526,550
136823,512,582,611
136827,497,523,544
136832,502,503,502
136836,500,504,509
136840,516,522,516
136844,534,506,512
136848,507,480,481
136852,497,481,469
136855,506,510,477
136859,506,537,471
136863,491,550,482
136867,497,513,487
136871,504,482,508
136876,508,498,531
136880,513,553,560
136884,515,511,558
136888,537,512,531
136892,543,485,460
136896,523,446,436
136900,503,505,504
136904,501,622,632
136908,483,665,632
136911,512,667,563
136915,518,533,454
136920,512,429,406
136924,494,470,472
136928,472,538,526
136932,487,478,468
136936,505,415,423
136940,498,468,496
136944,500,461,482
136948,513,441,463
136952,521,464,455
136956,492,550,522
136961,508,598,559
136964,516,506,472
136967,500,459,463
136971,492,513,488
136975,488,542,507
136979,500,565,515
136983,531,479,448
136987,516,474,469
136991,504,642,585
136995,495,621,543
136999,494,513,475
137004,512,482,473
137008,533,504,476
137012,513,488,454
137016,482,470,437
137020,492,485,502
137023,508,533,571
137027,502,537,490
137031,495,496,421
137035,492,512,453
137039,516,545,498
137043,497,528,501
137048,495,498,495
137052,527,476,459
137056,520,519,525
137060,510,540,534
137064,510,520,508
137068,500,525,484
137072,500,524,490
137076,499,565,554
137079,515,528,531
137083,505,547,495
137088,500,604,467
137092,486,550,476
137096,501,480,450
137100,506,561,536
137104,526,521,490
137108,525,448,439
137112,498,438,442
137116,489,490,469
137120,500,536,544
137124,516,523,531
137128,515,498,473
137133,505,522,481
137136,516,499,488
137140,527,497,476
137144,502,518,462
137148,503,539,500
137152,492,498,500
137156,499,561,619
137160,514,582,560
137164,523,466,440
137168,487,474,432
137172,488,477,452
137177,510,494,458
137181,522,522,487
137185,506,525,510
137189,499,495,500
137192,491,505,512
137196,494,529,532
137200,505,526,506
137204,513,506,520
137208,504,503,499
137212,500,492,492
137217,502,521,554
137221,511,567,601
137225,517,509,484
137229,517,497,469
137233,519,473,437
137237,500,485,493
137241,508,491,494
137245,500,480,446
137248,507,505,466
137252,502,504,450
137256,501,514,460
137261,508,527,501
137265,503,528,512
137269,496,531,557
137273,507,517,560
137277,507,507,530
137281,520,541,528
137285,514,508,478
137289,498,485,470
137293,491,485,455
137297,493,515,498
137302,506,547,552
137305,523,569,535
137309,516,501,448
137313,496,464,455
137317,494,473,458
137321,510,492,484
137325,516,504,486
137329,515,507,486
137333,504,500,508
137337,493,508,525
137341,493,568,577
137346,513,517,532
137350,505,478,478
137354,496,513,497
137358,502,512,472
137361,512,491,459
137365,517,510,511
137369,498,531,510
137373,495,516,489
137377,524,479,479
137381,509,506,485
137385,506,510,479
137390,512,492,483
137394,512,534,520
137398,518,528,526
137402,514,507,491
137406,505,507,478
137410,503,506,491
137414,512,513,515
137417,502,535,526
137421,493,525,487
137425,505,516,477
137430,512,488,489
137434,507,506,511
137438,506,514,505
137442,496,536,557
137446,497,549,558
137450,508,517,474
137454,510,529,479
137458,511,493,471
137462,506,478,476
137466,507,516,508
137470,521,512,551
137474,520,483,498
137478,504,491,486
137482,500,487,482
137486,493,505,494
137490,516,542,519
137494,510,523,502
137498,514,489,486
137502,504,499,493
137506,499,498,494
137510,500,505,509
137515,508,531,524
137519,498,527,531
137523,509,486,497
137527,508,519,508
137530,509,541,536
137534,518,517,512
137538,516,488,476
137542,508,493,484
137546,503,525,505
137550,533,530,512
137554,500,489,501
137559,501,488,513
137563,503,507,476
137567,503,492,476
137571,494,517,500
137575,491,507,499
137579,501,510,521
137583,516,517,533
137586,506,509,522
137590,513,531,516
137594,506,491,482
137598,510,480,478
137603,517,496,478
137607,513,497,487
137611,516,510,503
137615,511,522,497
137619,502,530,518
137623,508,522,521
137627,506,499,501
137631,503,503,494
137635,501,483,476
137639,511,479,513
137643,525,486,517
137647,504,484,477
137651,512,521,540
137655,501,553,536
137659,514,504,483
137663,519,483,484
137667,510,470,480
137671,515,467,477
137675,505,504,480
137679,516,499,486
137683,518,495,514
137688,512,514,526
137692,515,519,531
137696,515,540,531
137699,509,514,508
137703,499,490,503
137707,513,487,503
137711,507,488,493
137715,504,480,503
137719,508,475,507
137723,515,492,504
137728,508,507,502
137732,497,500,501
137736,502,485,511
137740,512,497,516
137744,506,557,550
137748,506,529,515
137752,510,495,510
137755,521,497,525
137759,510,489,491
137763,506,500,490
137767,499,483,484
137772,506,500,496
137776,500,520,495
137780,520,525,518
137784,506,519,519
137788,493,501,490
137792,501,496,501
137796,509,484,500
137800,514,480,495
137804,517,508,512
137808,515,512,503
137811,511,526,525
137816,504,514,519
137820,513,517,524
137824,510,505,514
137828,506,530,499
137832,496,518,510
137836,515,498,496
137840,538,495,488
137844,511,510,517
137848,494,501,511
137852,500,506,506
137857,502,507,498
137861,500,506,518
137865,502,495,510
137868,502,503,494
137872,506,507,504
137876,513,534,522
137880,511,486,511
137884,500,495,510
137888,500,513,502
137892,514,500,500
137896,511,515,534
137901,524,515,510
137905,509,505,497
137909,513,513,512
137913,515,499,498
137917,508,493,470
137921,503,501,480
137924,504,516,512
137928,516,523,521
137932,519,523,510
137936,510,514,522
137940,509,520,535
137945,499,515,493
137949,502,520,488
137953,505,527,517
137957,504,505,505
137961,501,474,479
137965,496,503,502
137969,499,509,516
137973,503,490,494
137977,507,492,512
137980,518,541,522
137985,506,521,506
137989,512,515,511
137993,506,498,510
137997,500,515,519
138001,505,516,522
138005,509,502,493
138009,516,488,485
138013,518,518,502
138017,509,522,505
138021,519,514,522
138025,508,514,504
138030,497,499,477
138034,503,507,511
138037,520,507,523
138041,511,499,513
138045,506,491,512
138049,504,508,516
138053,516,516,517
138057,505,518,502
138061,507,526,512
138065,499,511,519
138070,512,520,526
138074,501,496,504
138078,506,508,517
138082,507,531,550
138086,510,520,522
138090,508,503,498
138093,511,518,512
138097,511,518,512
138101,523,496,502
138105,520,505,510
138109,498,530,531
138114,494,522,514
138118,499,504,492
138122,510,489,485
138126,505,504,495
138130,507,505,495
138134,512,523,496
138138,502,494,502
138142,502,479,510
138146,498,497,516
138149,506,538,535
138153,518,545,537
138158,500,501,522
138162,512,505,525
138166,509,504,513
138170,512,512,510
138174,515,510,515
138178,509,499,500
138182,507,495,484
138186,506,510,497
138190,510,543,534
138194,498,525,538
138199,508,483,493
138203,519,484,490
138206,509,499,491
138210,507,508,505
138214,508,511,511
138218,507,498,525
138222,516,502,512
138226,519,513,503
138230,515,504,521
138234,505,517,521
138238,494,528,495
138243,499,510,492
138247,507,497,500
138251,514,525,539
138255,508,516,542
138259,509,508,529
138262,504,511,503
138266,501,504,492
138270,507,508,493
138274,510,525,515
138278,511,520,517
138283,501,499,529
138287,513,501,514
138291,511,506,490
138295,503,508,506
138299,504,513,532
138303,511,503,543
138307,516,508,534
138311,510,514,536
138315,495,509,509
138318,505,518,500
138322,508,508,512
138327,507,507,538
138331,510,519,536
138335,508,518,532
138339,507,507,537
138343,511,509,517
138347,518,500,490
138351,503,504,490
138355,503,472,478
138359,509,480,504
138363,521,493,512
138368,518,497,501
138372,521,496,500
138375,506,500,500
138379,507,504,498
138383,510,511,516
138387,508,480,503
138391,497,508,509
138395,498,527,518
138399,506,514,515
138403,503,525,550
138407,513,512,531
138412,510,487,502
138416,506,474,493
138420,508,497,507
138424,496,506,513
138428,502,501,517
138431,522,512,508
138434,516,514,500
138438,501,509,514
138442,506,502,520
138446,510,495,516
138450,502,500,515
138455,510,496,505
138459,515,509,509
138463,515,499,505
138467,512,514,527
138471,517,528,541
138475,518,506,507
138479,506,473,486
138483,499,482,492
138487,503,527,519
138490,508,519,507
138494,508,506,506
138499,507,528,533
138503,505,502,501
138507,504,504,509
138511,510,499,507
138515,515,493,500
138519,510,512,513
138523,502,504,498
138527,499,515,511
138531,513,488,502
138535,517,493,514
138540,508,500,517
138544,504,510,525
138547,507,515,515
138551,505,517,512
138555,503,527,519
138559,506,501,518
138563,504,493,507
138567,511,503,519
138571,506,533,505
138575,508,529,498
138579,505,492,491
138584,502,515,498
138588,503,520,508
138592,507,506,513
138596,511,507,523
138600,519,491,511
138603,509,492,508
138607,501,506,534
138611,507,511,502
138615,503,523,492
138619,517,503,495
138624,516,507,519
138628,503,511,511
138632,520,509,533
138636,522,514,503
138640,512,498,495
138644,505,503,504
138648,505,524,506
138652,521,527,496
138656,509,510,510
138659,504,512,519
138663,500,535,530
138668,499,510,512
138672,507,515,530
138676,516,518,509
138680,518,492,493
138684,509,503,504
138688,518,523,516
138692,512,521,532
138696,502,513,523
138700,507,504,499
138704,504,500,484
138708,504,500,481
138713,501,510,487
138716,505,496,503
138720,506,524,534
138724,499,520,540
138728,496,526,523
138732,508,528,505
138736,509,498,505
138740,510,500,511
138744,510,511,522
138748,510,526,535
138753,487,508,515
138757,501,490,502
138761,503,520,513
138765,499,519,496
138769,515,503,497
138772,504,502,508
138776,518,511,524
138780,520,532,564
138784,499,513,507
138788,501,501,489
138792,504,510,506
138797,502,526,517
138801,506,495,508
138805,510,504,500
138809,503,518,496
138813,486,513,504
138817,492,515,503
138821,509,507,487
138825,512,509,513
138828,515,513,529
138832,508,511,527
138836,513,514,521
138841,506,512,518
138845,515,523,540
138849,496,519,515
138853,496,516,513
138857,516,500,499
138861,521,493,503
138865,514,519,521
138869,510,492,514
138873,492,486,494
138877,496,499,501
138882,505,525,504
138885,505,522,503
138889,504,524,502
138893,503,520,512
138897,506,497,505
138901,510,487,515
138905,515,526,544
138909,513,532,512
138913,501,523,519
138917,510,508,508
138921,494,512,505
138926,493,493,500
138930,499,520,512
138934,510,525,528
138938,520,536,525
138941,513,526,528
138945,501,507,499
138949,519,498,492
138953,507,512,504
138957,501,516,502
138961,504,522,518
138966,507,507,515
138970,503,495,504
138974,506,515,517
138978,500,510,477
138982,496,507,485
138986,502,488,500
138990,501,464,487
138994,501,499,494
138997,505,535,524
139001,512,533,521
139005,502,518,555
139010,512,510,561
139014,526,486,492
139018,510,506,490
139022,506,518,497
139026,492,505,494
139030,494,491,501
139034,496,508,511
139038,509,491,509
139042,515,498,503
139046,514,498,494
139051,501,496,499
139054,506,510,506
139058,510,521,502
139062,508,520,509
139066,504,504,537
139070,496,527,554
139074,507,518,506
139078,508,506,498
139082,504,523,530
139086,520,518,516
139090,508,479,482
139095,502,484,492
139099,493,518,524
139103,495,488,515
139107,502,497,499
139110,512,515,494
139114,520,514,499
139118,504,500,495
139122,500,492,496
139126,496,505,511
139130,493,513,523
139134,505,516,538
139139,514,523,519
139143,511,505,498
139147,505,509,509
139151,504,508,493
139155,513,522,496
139159,518,519,508
139163,509,505,503
139166,510,508,503
139170,508,532,512
139174,502,530,528
139179,511,515,511
139183,506,504,503
139187,510,522,523
139191,501,532,541
139195,501,482,504
139199,501,499,510
139203,508,484,498
139207,502,487,499
139211,504,506,503
139215,502,524,511
139219,500,528,527
139223,505,526,513
139227,501,515,503
139231,521,510,494
139235,520,498,500
139239,515,511,514
139243,504,525,524
139247,506,505,521
139251,502,491,498
139255,506,484,507
139259,504,505,518
139264,511,487,483
139268,508,508,497
139272,518,501,494
139276,493,484,492
139279,485,506,510
139283,491,509,511
139287,508,551,543
139291,517,532,531
139295,512,499,498
139299,500,503,496
139303,501,518,504
139308,495,503,501
139312,497,509,499
139316,506,518,511
139320,502,510,513
139324,513,522,518
139328,510,536,530
139332,509,534,536
139335,508,507,510
139339,505,507,506
139343,507,512,509
139347,518,505,500
139352,517,487,489
139356,498,491,489
139360,495,521,520
139364,501,525,508
139368,504,511,489
139372,499,500,509
139376,511,501,521
139380,513,510,526
139384,502,511,502
139388,495,518,490
139392,499,503,511
139396,509,502,514
139400,508,497,494
139404,513,503,504
139408,511,504,509
139412,505,502,509
139416,496,501,509
139420,502,512,505
139424,519,507,507
139428,498,509,505
139432,498,516,501
139437,498,523,522
139441,496,526,523
139445,504,522,528
139448,504,539,548
139452,512,519,527
139456,515,495,483
139460,507,491,494
139464,503,511,501
139468,498,511,503
139472,506,505,502
139476,520,524,508
139481,512,507,509
139485,537,491,500
139489,518,506,504
139493,501,519,516
139497,495,523,519
139501,506,535,528
139504,502,514,510
139508,494,517,499
139512,493,505,509
139516,503,503,526
139521,511,494,499
139525,504,500,507
139529,501,501,519
139533,510,520,515
139537,513,516,502
139541,508,498,497
139545,515,503,495
139549,502,517,514
139553,496,514,523
139557,498,504,517
139560,501,491,496
139565,503,486,493
139569,504,506,512
139573,503,513,521
139577,510,512,535
139581,512,513,522
139585,508,497,494
139589,503,499,492
139593,506,518,509
139597,513,518,519
139601,512,511,518
139606,506,501,509
139610,510,484,508
139614,504,491,529
139617,511,514,514
139621,505,502,499
139625,501,501,504
139629,508,509,518
139633,505,502,510
139637,518,490,499
139641,513,495,496
139645,503,503,509
139650,504,524,538
139654,511,527,516
139658,507,502,494
139662,503,495,505
139666,498,504,516
139670,502,495,504
139673,505,503,515
139677,509,521,520
139681,511,509,506
139685,510,497,490
139689,511,516,524
139694,515,523,523
139698,515,505,502
139702,507,494,507
139706,505,501,527
139710,510,536,537
139714,515,518,511
139718,514,516,535
139722,502,511,525
139726,508,502,493
139729,500,504,508
139734,508,497,509
139738,506,495,479
139742,498,493,473
139746,506,504,490
139750,508,516,496
139754,504,519,512
139758,509,537,538
139762,508,524,514
139766,507,503,490
139770,513,516,522
139774,507,496,506
139779,508,481,491
139783,508,509,505
139786,509,509,509
139790,509,511,507
139794,512,521,506
139798,522,509,504
139802,521,497,491
139806,509,499,488
139810,508,530,529
139814,496,532,533
139819,502,524,506
139823,507,516,515
139827,498,510,495
139831,502,497,487
139835,509,508,480
139839,515,511,495
139842,509,518,528
139846,503,520,523
139850,504,507,514
139854,503,503,509
139858,504,500,500
139863,509,521,536
139867,511,519,510
139871,510,507,483
139875,507,512,498
139879,503,510,497
139883,499,514,497
139887,502,518,504
139891,524,515,503
139895,513,504,505
139898,495,513,512
139902,498,520,508
139907,505,525,514
139911,504,532,510
139915,509,526,496
139919,500,518,497
139923,505,522,515
139927,511,508,515
139931,517,500,503
139935,512,503,506
139939,502,522,516
139943,499,515,509
139948,500,510,512
139952,498,507,509
139955,506,507,505
139959,523,503,501
139963,524,529,524
139967,521,518,533
139971,498,494,504
139975,490,505,496
139979,502,514,501
139983,499,528,530
139987,510,533,525
139992,507,502,495
139996,505,499,495
140000,504,502,497
140004,509,513,504
140008,508,518,505
140011,510,542,539
140015,515,558,532
140019,512,495,486
140023,505,485,492
140027,501,505,512
140032,497,514,501
140036,502,504,502
140040,512,508,516
140044,513,517,533
140048,516,510,518
140052,513,505,500
140056,509,516,520
140060,504,523,521
140064,501,498,502
140067,498,502,495
140071,503,503,512
140076,510,534,539
140080,514,527,515
140084,511,493,489
140088,494,483,493
140092,497,511,514
140096,512,498,501
140100,514,515,509
140104,514,508,507
140108,522,528,523
140112,500,529,511
140116,493,503,503
140121,496,521,519
140124,505,499,509
140128,499,484,495
140132,517,489,505
140136,516,524,531
140140,505,508,498
140144,504,491,489
140148,501,498,503
140152,503,531,523
140156,515,539,544
140161,505,499,517
140165,507,498,504
140169,505,511,492
140173,514,511,504
140177,515,506,518
140180,507,514,523
140184,502,514,507
140188,507,504,517
140192,509,526,531
140196,508,505,499
140200,508,488,493
140205,511,498,507
140209,513,504,520
140213,508,512,520
140217,503,522,505
140221,507,523,511
140225,511,520,549
140229,514,520,546
140233,503,477,479
140236,523,473,475
140240,514,500,480
140244,500,521,507
140249,493,548,553
140253,506,481,510
140257,505,483,486
140261,505,508,492
140265,511,503,505
140269,512,517,517
140273,506,503,507
140277,500,507,491
140281,504,517,500
140285,509,526,529
140290,523,529,527
140294,521,520,495
140298,506,499,497
140302,499,496,504
140306,495,511,516
140310,499,495,512
140314,510,492,520
140318,500,503,517
140322,495,519,508
140326,500,512,491
140331,506,511,504
140335,503,537,539
140339,516,518,529
140343,517,499,488
140346,503,507,493
140350,500,511,518
140354,500,514,507
140358,506,531,521
140362,512,524,534
140366,523,514,510
140370,521,492,484
140375,503,499,514
140379,498,511,533
140383,506,500,525
140387,508,514,499
140391,508,484,473
140395,515,496,493
140399,504,515,515
140402,504,509,510
140406,503,501,524
140410,509,514,522
140414,500,523,520
140419,509,514,508
140423,518,497,498
140427,508,490,488
140431,506,501,503
140435,510,503,500
140439,506,508,505
140443,499,513,517
140447,505,525,513
140451,501,542,509
140455,502,529,542
140459,510,512,525
140463,517,489,492
140467,520,503,518
140471,510,528,525
140475,499,511,485
140479,499,497,487
140483,511,502,511
140487,505,511,515
140491,508,503,499
140495,511,519,488
140499,505,522,503
140504,514,528,520
140508,516,528,540
140512,505,510,533
140515,507,490,508
140518,499,487,497
140522,502,504,503
140526,501,508,487
140530,517,516,489
140534,514,528,536
140538,518,541,540
140542,504,506,502
140547,493,472,487
140551,501,504,500
140555,502,526,514
140559,501,502,507
140563,501,489,515
140567,503,492,495
140570,503,508,508
140573,510,520,526
140577,513,536,529
140581,509,513,501
140585,514,513,508
140590,523,516,519
140594,519,493,504
140598,511,517,511
140602,509,514,496
140606,506,505,492
140610,504,514,518
140614,505,525,529
140618,510,527,526
140622,516,499,476
140625,508,498,501
140630,504,509,518
140634,499,488,501
140638,497,493,495
140642,495,497,499
140646,499,518,498
140650,507,509,498
140654,499,520,536
140658,509,500,531
140662,509,500,492
140666,514,521,490
140670,507,541,531
140675,512,543,540
140679,510,498,503
140682,506,489,498
140686,509,512,526
140690,517,499,503
140694,517,485,499
140698,500,496,499
140702,504,508,493
140706,505,521,497
140710,506,508,501
140715,507,506,511
140719,512,511,511
140723,512,500,508
140727,504,511,511
140731,503,530,511
140735,511,534,544
140738,505,503,507
140742,501,486,490
140746,504,487,486
140750,501,487,504
140754,515,504,510
140759,521,540,516
140763,506,528,510
140767,508,502,491
140771,504,515,500
140775,507,504,514
140779,507,501,504
140783,497,514,503
140787,499,537,527
140791,508,518,520
140794,515,497,502
140798,510,504,494
140803,501,485,481
140807,526,493,495
140811,523,506,506
140815,506,505,526
140819,502,487,506
140823,499,494,516
140827,505,508,525
140831,518,515,526
140835,521,503,512
140839,510,507,506
140844,508,506,498
140848,507,512,505
140851,504,533,523
140855,501,518,511
140859,517,494,513
140863,527,500,510
140867,509,512,504
140871,503,530,531
140875,502,539,550
140879,510,518,536
140883,505,484,498
140888,518,477,490
140892,520,505,511
140896,516,519,541
140900,508,508,520
140904,505,485,495
140907,506,503,519
140910,509,519,513
140914,523,505,488
140918,523,492,503
140922,505,504,505
140926,498,525,500
140931,500,503,490
140935,503,490,499
140939,501,524,541
140943,509,539,516
140947,524,518,498
140951,516,504,497
140955,500,496,498
140959,504,490,494
140963,509,511,502
140967,512,519,516
140972,497,511,518
140976,503,509,511
140980,510,486,490
140984,512,498,496
140988,498,515,511
140992,495,514,501
140996,511,524,520
141000,510,519,535
141004,520,518,510
141008,509,509,487
141012,494,493,495
141017,503,488,500
141020,512,495,501
141023,504,514,499
141027,502,514,510
141031,512,495,505
141035,516,509,498
141039,520,508,498
141043,510,511,514
141047,502,514,541
141051,491,541,548
141056,501,512,502
141060,510,501,498
141064,506,491,492
141068,509,501,490
141072,501,505,486
141076,502,487,502
141079,499,501,517
141083,503,516,518
141087,496,507,513
141091,507,513,510
141095,518,518,512
141100,522,524,516
141104,512,526,528
141108,501,519,522
141112,497,519,512
141116,500,526,527
141120,509,525,520
141124,519,508,501
141128,508,482,482
141132,508,485,491
141135,504,489,510
141139,508,515,518
141144,513,522,514
141148,506,528,506
141152,505,512,494
141156,512,506,489
141160,517,521,499
141164,519,514,503
141168,503,520,527
141172,501,500,508
141176,503,489,494
141180,503,503,506
141185,506,514,507
141189,503,507,512
141192,511,511,507
141196,515,529,517
141200,503,538,533
141204,502,515,514
141208,505,507,502
141212,510,502,500
141216,514,529,526
141220,520,519,521
141224,511,505,505
141229,501,497,499
141233,499,497,496
141237,509,510,508
141241,512,516,505
141245,514,514,502
141248,511,527,510
141252,509,512,514
141256,513,496,499
141260,512,505,497
141264,508,526,518
141268,501,508,506
141273,500,509,502
141277,517,516,513
141281,516,510,513
141285,514,494,510
141289,512,517,510
141293,505,516,501
141297,511,505,512
141301,520,506,513
141304,501,502,516
141308,490,510,524
141313,503,516,522
141317,508,521,522
141321,509,500,501
141325,511,495,497
141329,514,495,501
141333,518,511,507
141337,516,517,507
141341,502,506,500
141345,507,500,515
141349,513,497,514
141353,507,503,509
141358,509,499,503
141361,520,489,496
141365,514,508,516
141369,506,514,516
141373,509,526,511
141377,497,524,499
141381,498,513,505
141385,502,494,499
141389,512,490,509
141393,516,500,507
141398,509,495,501
141402,505,498,508
141406,509,510,514
141410,509,506,511
141414,506,499,514
141417,496,494,508
141421,502,497,507
141425,513,508,507
141429,511,512,504
141433,519,524,506
141437,509,513,508
141442,512,516,509
141446,502,511,510
141450,505,504,505
141454,517,501,499
141458,517,504,500
141462,511,504,501
141466,501,505,501
141470,500,507,501
141473,504,511,502
141477,501,510,500
141481,501,510,499
141486,507,507,504
141490,503,507,505
141494,501,505,503
141498,500,503,503
141502,509,504,506
141506,510,509,508
141510,508,512,503
141514,512,513,494
141518,506,502,500
141522,504,499,508
141527,514,500,510
141530,509,504,504
141534,508,503,502
141538,511,500,505
141542,514,503,508
141546,519,506,506
141550,515,505,503
141554,512,503,502
141558,505,500,497
141562,500,505,496
141566,501,513,498
141571,497,504,500
141575,502,500,499
141579,505,505,492
141583,508,511,490
141586,506,511,501
141590,520,511,504
141594,532,501,501
141598,512,500,505
141602,503,507,506
141606,509,506,499
141611,530,500,501
141615,536,499,502
141619,523,503,502
141623,496,507,501
141627,490,507,500
141631,498,505,499
141635,491,502,501
141639,503,505,502
141642,509,507,492
141646,512,495,478
141650,517,499,477
141655,507,511,499
141659,510,515,510
141663,502,517,508
141667,495,512,509
141671,493,510,515
141675,496,507,506
141679,505,506,515
141683,508,504,509
141687,502,506,504
141691,500,509,498
141696,499,507,504
141699,498,506,498
141703,499,507,497
141707,499,507,488
141711,495,504,474
141715,496,509,495
141719,500,516,511
141723,500,510,509
141727,501,505,500
141731,502,511,510
141735,505,516,517
141740,502,512,518
141744,503,510,514
141748,503,506,508
141752,500,507,508
141755,497,514,504
141759,504,516,497
141763,507,515,496
141767,502,514,496
141771,505,514,492
141775,510,512,488
141779,503,516,493
141784,498,515,502
141788,500,512,504
141792,500,515,500
141796,505,515,499
141800,508,517,505
141804,509,515,507
141808,510,519,508
141811,513,520,512
141815,504,519,513
141819,499,513,510
141824,502,512,509
141828,503,514,505
141832,504,514,509
141836,511,515,511
141840,505,516,507
141844,505,514,507
141848,503,513,508
141852,509,514,506
141856,506,517,505
141860,506,518,508
141864,503,521,505
141868,510,516,506
141872,516,512,513
141876,509,512,512
141880,497,511,506
141884,497,507,504
141888,503,508,505
141892,509,509,513
141896,504,508,520
141900,502,506,512
141904,502,500,512
141908,505,503,508
141913,511,510,506
141917,506,509,514
141921,501,505,513
141924,506,502,513
141928,511,507,515
141932,506,509,514
141936,509,505,511
141940,507,500,511
141944,510,501,517
141948,506,503,519
141953,507,502,510
141957,507,500,512
141961,505,496,513
141965,504,497,504
141969,507,506,508
141973,506,512,510
141977,505,509,513
141980,505,502,512
141984,505,500,512
141988,504,506,511
141992,504,507,512
141997,503,503,511
142001,504,503,512
142005,508,504,508
142009,510,507,511
142013,513,513,513
142017,509,512,511
142021,511,510,511
142025,522,511,514
142029,514,513,515
142033,503,510,514
142036,505,509,513
142041,507,506,512
142045,508,508,516
142049,510,511,515
142053,507,509,515
142057,504,511,519
142061,508,512,514
142065,513,511,517
142069,511,510,519
142073,513,507,514
142077,508,506,513
142082,507,511,513
142086,508,517,515
142090,508,514,513
142093,508,507,510
142097,511,509,514
142101,509,508,514
142105,508,509,515
142109,513,511,514
142113,506,510,518
142117,511,509,519
142121,508,510,521
142126,504,511,514
142130,503,508,508
142134,503,508,510
142138,505,513,514
142142,505,514,518
142146,508,515,517
142149,505,510,513
142153,502,509,511
142157,504,509,515
142161,507,510,516
142166,509,514,519
142170,508,513,519
142174,506,509,518
142178,505,511,520
142182,506,510,515
142186,506,509,515
142190,507,510,515
142194,510,515,512
142198,512,511,515
142202,509,510,517
142205,508,506,515
142210,508,502,517
142214,511,501,517
142218,513,505,516
142222,513,509,511
142226,510,511,512
142230,506,513,514
142234,508,511,514
142238,508,510,511
142242,509,511,512
142246,510,509,515
142251,504,506,515
142255,506,509,517
142259,507,516,519
142262,506,515,515
142266,504,505,513
142270,504,499,512
142274,511,500,512
142278,511,502,513
142282,508,503,514
142286,509,503,512
142290,508,504,513
142295,507,507,517
142299,509,513,519
142303,510,513,517
142307,507,508,516
142311,504,507,517
142315,507,507,518
142318,506,507,516
142322,506,507,515
142326,510,504,516
142330,509,503,515
142334,503,504,512
142339,502,510,512
142343,504,512,511
142347,508,511,514
142351,507,507,510
142355,513,508,508
142359,513,507,510
142363,507,505,511
142367,506,507,507
142371,503,511,508
142374,503,511,510
142379,505,510,508
142383,505,510,509
142387,500,511,512
142391,502,515,514
142395,508,518,516
142399,507,514,513
142403,508,511,513
142407,505,511,513
142411,503,512,516
142415,506,513,514
142419,508,514,514
142424,504,512,511
142428,504,514,509
142431,505,518,509
142435,507,516,511
142439,502,513,514
142443,497,511,514
142447,499,510,512
142451,504,514,511
142455,511,512,511
142459,505,513,508
142464,503,515,510
142468,506,512,514
142472,505,511,517
142476,505,513,514
142480,504,510,506
142484,502,506,507
142487,505,509,508
142491,509,512,510
142495,509,512,515
142499,506,510,518
142503,504,511,519
142508,506,509,518
142512,507,509,517
142516,504,514,514
142520,502,511,509
142524,501,509,510
142528,505,509,514
142532,506,508,515
142536,504,507,512
142540,503,506,510
142543,505,507,511
142547,509,510,510
142552,510,510,510
142556,507,506,509
142560,507,504,510
142564,509,508,510
142568,513,510,507
142572,510,509,505
142576,501,510,507
142580,499,504,505
142584,501,507,509
142588,505,513,512
142593,506,513,511
142597,505,508,509
142600,508,505,507
142604,508,510,510
142608,507,512,510
142612,505,509,507
142616,506,506,501
142620,506,508,500
142624,507,511,507
142628,510,513,513
142632,507,511,514
142637,502,507,512
142641,504,506,510
142645,505,509,512
142649,504,510,506
142653,503,511,505
142656,503,511,509
142660,503,507,511
142664,501,505,507
142668,506,504,512
142672,507,500,514
142676,502,499,513
142681,502,501,513
142685,503,504,510
142689,505,505,510
142693,502,506,511
142697,504,506,508
142701,506,505,503
142705,507,507,502
142709,506,511,505
142712,505,509,508
142716,503,505,512
142721,503,506,511
142725,504,512,508
142729,503,516,508
142733,505,512,505
142737,504,510,507
142741,506,510,512
142745,504,508,509
142749,502,504,512
142753,502,500,510
142757,504,503,507
142761,508,507,504
142766,508,509,505
142769,505,506,504
142773,505,507,505
142777,507,513,510
142781,507,515,509
142785,504,514,508
142789,501,507,510
142793,504,508,512
142797,507,511,512
142801,509,513,510
142806,506,511,508
142810,508,511,508
142814,507,509,509
142818,505,504,507
142822,504,502,506
142825,503,502,501
142829,504,507,505
142833,504,510,513
142837,506,510,516
142841,506,509,515
142845,507,507,514
142850,509,506,509
142854,508,507,507
142858,506,509,510
142862,507,509,507
142866,507,505,506
142870,509,506,509
142874,511,507,511
142878,512,510,510
142881,509,510,509
142885,507,507,509
142889,504,510,508
142894,506,515,511
142898,511,517,514
142902,509,515,518
142906,499,511,516
142910,499,510,514
142914,502,513,511
142918,504,518,509
142922,505,514,511
142926,503,510,507
142930,503,511,506
142935,506,513,509
142938,507,515,508
142942,506,514,506
142946,507,509,510
142950,506,507,509
142954,505,514,508
142958,504,515,511
142962,504,508,511
142966,504,504,509
142970,507,507,510
142974,509,512,512
142979,508,512,514
142983,504,507,511
142987,506,504,508
142991,512,507,508
142995,503,512,507
142999,499,510,507
143003,502,505,511
143007,507,503,513
143011,508,505,514
143015,508,508,510
143020,507,506,509
143024,505,501,510
143028,507,501,510
143032,509,504,510
143036,510,505,510
143040,509,503,509
143044,508,503,511
143047,508,504,509
143051,509,508,508
143055,510,512,508
143059,508,514,513
143064,505,514,512
143068,507,513,511
143072,508,512,511
143076,511,510,509
143080,510,507,507
143084,504,509,510
143088,505,514,512
143092,510,515,510
143096,509,513,510
143100,504,508,512
143104,504,505,509
143108,505,505,512
143112,505,505,512
143116,507,504,512
143120,505,504,511
143124,504,507,511
143128,504,507,511
143132,505,510,512
143136,504,510,512
143140,508,507,507
143144,510,510,510
143149,512,516,516
143153,509,518,517
143157,506,509,513
143160,507,508,513
143164,509,508,512
143168,511,509,511
143172,508,510,511
143176,508,510,510
143180,509,510,512
143184,509,511,509
143188,513,513,508
143193,511,510,507
143197,504,506,509
143201,502,509,509
143205,505,512,509
143209,506,511,510
143213,507,510,508
143216,508,508,508
143220,508,510,509
143224,509,515,510
143228,510,515,508
143233,507,514,512
143237,506,509,514
143241,507,504,510
143245,507,510,507
143249,506,512,507
143253,508,507,507
143257,510,507,507
143261,512,509,509
143265,511,513,510
143269,510,517,510
143272,505,513,513
143277,505,509,515
143281,509,509,512
143285,512,510,506
143289,506,512,507
143293,505,509,514
143297,508,508,516
143301,510,507,511
143305,510,507,510
143309,507,507,512
143313,504,504,517
143318,505,506,518
143322,508,512,515
143326,508,514,511
143329,509,509,510
143333,509,507,506
143337,508,512,513
143341,508,510,511
143345,506,507,509
143349,504,508,505
143353,507,509,507
143357,511,512,509
143362,508,513,513
143366,506,511,510
143370,505,509,510
143374,508,510,513
143378,509,512,508
143382,506,516,505
143385,505,515,505
143389,508,512,505
143393,505,511,508
143397,508,508,518
143401,509,508,515
143406,506,508,506
143410,507,510,507
143414,509,511,507
143418,510,510,506
143422,510,509,509
143426,507,510,511
143430,502,511,512
143434,504,507,509
143438,507,509,508
143441,507,511,511
143446,505,510,510
143450,505,507,511
143454,507,508,511
143458,510,511,510
143462,514,511,507
143466,511,510,509
143470,505,509,510
143474,503,506,515
143478,504,506,516
143482,506,511,511
143486,505,510,509
143491,506,507,507
143495,510,507,508
143498,512,508,504
143502,509,507,505
143506,507,506,512
143510,508,506,510
143514,511,506,507
143518,511,509,507
143522,510,508,509
143526,507,507,507
143531,512,511,507
143535,513,515,508
143539,510,511,508
143543,505,507,506
143547,506,506,507
143551,506,509,507
143554,508,517,509
143557,511,516,511
143561,513,510,513
143565,512,507,515
143569,512,510,513
143574,514,513,512
143578,509,510,510
143582,507,506,510
143586,511,507,510
143590,510,511,510
143594,509,516,509
143598,507,513,515
143602,507,505,520
143606,509,503,519
143609,508,505,516
143612,507,510,516
143617,507,510,510
143621,509,512,512
143625,508,511,512
143629,510,508,514
143633,512,505,512
143637,510,505,507
143641,509,505,506
143645,510,505,509
143649,511,507,508
143653,508,507,509
143657,508,507,513
143662,510,510,513
143666,514,512,510
143670,510,516,509
143674,505,511,512
143678,504,510,510
143682,507,511,508
143686,511,511,509
143690,511,513,510
143694,509,513,510
143698,507,511,512
143703,507,515,510
143707,508,517,508
143711,510,512,509
143715,508,510,512
143719,507,507,506
143722,509,510,505
143726,510,516,511
143730,510,516,513
143734,509,511,511
143738,509,508,513
143742,510,507,511
143747,511,509,508
143751,510,511,506
143755,509,509,509
143759,510,511,514
143763,511,513,514
143767,511,515,514
143771,508,511,510
143775,505,506,508
143778,508,509,507
143781,508,515,507
143785,507,514,506
143790,506,511,505
143794,504,507,505
143798,505,511,506
143802,507,518,509
143806,507,516,509
143810,507,514,509
143814,506,512,509
143818,508,513,507
143822,509,510,503
143826,508,511,503
143831,507,508,503
143834,507,508,508
143837,510,511,511
143841,512,514,512
143845,511,513,504
143849,508,510,503
143853,508,507,506
143857,511,506,507
143861,511,506,506
143865,510,505,507
143869,510,505,506
143874,510,505,507
143878,512,505,509
143882,512,506,509
143886,510,507,508
143889,510,508,507
143892,511,511,506
143896,513,514,507
143900,515,515,508
143904,514,516,504
143908,514,514,509
143912,511,512,508
143917,513,513,508
143921,515,512,508
143925,510,510,508
143929,509,506,508
143933,512,506,510
143937,510,508,513
143941,509,508,512
143944,507,512,514
143947,511,510,509
143951,511,511,508
143955,508,511,506
143960,506,511,506
143964,504,508,506
143968,507,509,503
143972,511,512,505
143976,513,511,510
143980,511,512,507
143984,508,506,512
143988,509,503,516
143992,510,500,517
143996,509,501,517
144000,507,503,514
144004,506,502,513
144008,511,502,514
144012,512,505,513
144016,510,507,509
144020,505,502,509
144024,505,501,513
144028,510,504,513
144032,512,505,511
144036,509,505,510
144040,504,505,506
144045,507,504,505
144049,510,508,505
144053,510,512,505
144056,508,513,506
144059,507,509,508
144063,506,508,512
144067,506,509,508
144071,510,508,504
144075,507,508,506
144079,506,507,506
144083,507,505,509
144088,508,507,510
144092,508,507,508
144096,506,506,503
144100,507,507,503
144104,512,511,505
144108,511,511,503
144112,508,508,500
144115,504,505,504
144119,504,507,509
144123,510,510,512
144128,511,512,511
144132,511,507,511
144136,508,504,508
144140,508,505,502
144144,508,508,506
144148,507,510,505
144152,508,507,505
144156,504,509,507
144160,503,513,507
144164,509,513,508
144168,510,514,506
144172,509,512,508
144176,509,508,508
144180,508,511,507
144184,510,513,505
144188,513,517,511
144192,513,516,511
144196,507,514,508
144200,510,512,506
144204,512,515,507
144208,511,517,506
144212,508,514,507
144217,506,512,511
144221,509,513,512
144225,509,516,511
144228,508,515,511
144232,505,511,512
144236,508,507,510
144240,508,508,509
144244,509,512,507
144248,508,509,506
144252,507,506,508
144257,506,508,506
144261,505,510,505
144265,508,515,505
144269,511,513,509
144273,513,511,515
144277,513,508,512
144281,509,507,507
144284,509,507,505
144288,509,506,506
144292,509,504,505
144296,510,505,515
144301,513,508,514
144305,512,509,506
144309,510,508,508
144313,510,506,510
144317,513,508,505
144321,517,512,505
144325,511,509,505
144329,507,507,509
144333,507,507,510
144337,509,511,509
144340,508,516,507
144345,509,512,510
144349,511,509,513
144353,513,509,510
144357,517,514,506
144361,513,515,498
144365,508,510,498
144369,507,511,511
144373,503,515,513
144377,508,516,512
144381,506,511,513
144386,505,507,513
144390,507,508,512
144394,509,513,511
144397,508,517,512
144401,507,514,509
144405,508,511,507
144409,508,512,509
144413,507,516,511
144417,508,518,516
144421,508,513,511
144425,508,510,507
144430,509,511,508
144434,511,511,508
144438,511,512,506
144442,510,512,505
144446,509,510,507
144450,509,513,505
144453,513,517,507
144457,510,519,511
144461,511,514,510
144465,510,514,512
144470,509,515,515
144474,509,513,510
144478,508,511,502
144482,503,508,496
144486,507,511,503
144490,515,516,507
144494,513,519,511
144498,509,517,511
144502,505,517,504
144506,506,520,510
144509,508,520,516
144514,512,517,512
144518,509,511,506
144522,506,507,508
144526,508,504,506
144530,512,504,505
144534,510,508,506
144538,509,507,501
144542,510,505,502
144546,511,505,500
144550,514,502,506
144555,514,502,502
144559,507,509,501
144563,506,512,510
144566,507,513,515
144570,510,511,512
144574,510,509,506
144578,508,508,501
144582,510,511,503
144586,507,516,506
144590,503,517,506
144594,501,514,505
144599,504,509,508
144603,505,507,508
144607,508,506,509
144611,508,507,509
144615,511,505,507
144619,507,505,506
144622,507,505,503
144625,505,508,505
144629,506,507,514
144633,508,504,510
144637,506,508,511
144642,508,507,506
144646,512,507,503
144650,512,505,503
144654,510,505,499
144658,509,507,514
144662,509,517,516
144666,510,515,513
144670,509,513,514
144674,503,514,509
144677,504,516,501
144680,505,516,497
144685,505,527,515
144689,506,518,520
144693,506,502,522
144697,504,506,512
144701,508,521,507
144705,509,513,489
144709,510,516,487
144713,510,517,487
144717,510,518,493
144721,514,545,534
144726,515,531,522
144730,510,519,531
144734,504,505,509
144737,507,514,491
144741,510,521,488
144745,511,515,506
144749,515,501,527
144753,513,492,511
144757,510,498,510
144761,509,504,514
144765,504,513,520
144770,503,497,505
144774,506,495,495
144778,505,510,506
144782,510,502,506
144786,510,514,529
144790,506,498,543
144793,508,485,529
144797,511,490,535
144801,512,509,530
144805,507,507,522
144809,503,499,519
144814,508,508,542
144818,513,523,562
144822,512,513,559
144826,510,499,547
144830,510,485,547
144834,509,472,537
144838,511,490,526
144842,513,523,551
144846,506,530,559
144849,508,527,555
144854,507,497,551
144858,511,498,524
144862,509,505,523
144866,508,499,569
144870,506,500,570
144874,509,495,555
144878,513,524,552
144882,508,526,550
144886,519,516,553
144890,516,507,556
144894,511,513,551
144899,508,527,555
144903,511,481,526
144906,517,482,531
144910,513,502,559
144914,511,507,554
144918,506,505,535
144922,506,502,537
144926,510,504,518
144930,510,496,521
144934,512,537,552
144939,509,519,542
144943,506,503,535
144947,501,522,546
144951,503,489,533
144955,516,498,537
144959,509,486,532
144962,518,489,537
144966,519,454,502
144970,513,466,486
144974,518,523,536
144978,525,540,570
144983,526,538,556
144987,509,523,546
144991,525,519,532
144995,529,505,513
144999,502,495,557
145003,514,555,585
145007,529,513,497
145011,521,489,466
145015,513,515,477
145018,517,513,478
145022,506,509,478
145027,503,513,503
145031,504,514,514
145035,502,506,507
145039,509,514,507
145043,507,522,502
145047,497,524,505
145051,505,507,495
145055,510,530,496
145059,502,532,505
145063,513,486,503
145068,516,480,495
145072,527,479,500
145075,521,493,503
145079,516,498,495
145083,511,564,559
145087,522,540,522
145091,531,511,494
145095,510,509,509
145099,496,488,490
145103,506,533,492
145107,519,565,522
145112,526,513,459
145116,520,473,432
145120,510,460,469
145124,523,502,503
145128,502,490,502
145131,504,586,588
145135,512,564,532
145139,496,510,465
145143,503,501,473
145147,511,525,484
145152,519,497,454
145156,512,518,470
145160,522,516,499
145164,512,461,476
145168,516,462,470
145172,522,478,459
145176,523,476,490
145180,504,534,539
145184,507,561,521
145187,518,496,469
145191,502,495,465
145196,495,524,533
145200,507,541,515
145204,524,499,467
145208,513,499,467
145212,494,507,490
145216,506,502,476
145220,516,499,492
145224,520,506,492
145228,499,510,445
145232,505,498,470
145236,495,494,484
145241,501,542,503
145244,514,509,513
145248,502,579,612
145252,512,631,579
145256,504,565,523
145260,510,458,447
145264,508,403,403
145268,506,451,412
145272,502,493,451
145276,529,496,470
145281,515,523,525
145285,506,581,602
145289,515,538,513
145293,511,529,457
145297,511,534,474
145300,516,469,451
145304,508,454,498
145308,496,520,516
145312,502,539,458
145316,507,526,492
145320,514,509,533
145325,511,532,539
145329,496,558,505
145333,494,516,474
145337,497,492,469
145341,502,519,511
145345,510,599,625
145349,511,584,588
145353,494,483,448
145356,503,469,422
145360,498,497,446
145364,498,570,443
145369,518,500,482
145373,496,469,495
145377,497,466,478
145381,502,496,501
145385,509,522,501
145389,511,476,480
145393,512,509,510
145397,481,504,496
145401,493,532,526
145405,506,529,496
145410,515,532,520
145413,509,537,526
145417,504,552,531
145421,505,543,538
145425,522,539,547
145429,517,565,524
145433,493,524,465
145437,487,493,443
145441,494,514,506
145445,514,572,565
145449,542,482,464
145454,514,459,447
145458,498,535,489
145462,503,495,469
145466,515,511,486
145469,494,518,464
145473,502,487,475
145477,499,495,560
145481,507,562,661
145485,514,536,558
145489,503,536,485
145494,500,499,446
145498,503,493,445
145502,504,511,491
145506,511,556,525
145510,518,566,499
145514,504,531,482
145518,494,479,453
145522,498,466,460
145525,516,490,528
145529,516,579,609
145533,508,573,526
145538,504,486,435
145542,508,444,426
145546,500,448,473
145550,501,493,538
145554,507,499,519
145558,508,465,480
145562,510,486,494
145566,492,572,589
145570,490,555,533
145574,501,480,434
145579,512,504,458
145582,506,561,592
145586,498,510,520
145590,514,456,438
145594,522,449,439
145598,529,474,462
145602,506,491,482
145606,491,513,506
145610,494,531,512
145614,499,505,522
145618,520,509,532
145623,508,533,604
145627,509,588,625
145631,503,526,473
145635,504,461,387
145638,508,476,450
145642,495,505,499
145646,498,486,487
145650,502,516,511
145654,507,514,497
145658,509,482,479
145662,516,562,575
145667,519,568,570
145671,509,463,460
145675,505,451,457
145679,504,482,474
145683,512,513,477
145687,522,504,503
145691,510,525,528
145694,497,515,521
145698,499,534,526
145702,503,593,561
145707,496,550,541
145711,507,496,484
145715,506,458,442
145719,505,475,473
145723,503,544,547
145727,517,511,501
145731,514,469,459
145735,506,476,484
145739,517,501,488
145743,502,506,502
145747,494,526,511
145751,507,494,502
145755,509,488,500
145759,521,499,508
145763,525,483,490
145767,504,505,517
145771,499,515,518
145775,514,492,498
145779,498,492,486
145783,494,516,508
145787,511,518,546
145792,510,533,562
145796,504,505,502
145800,498,499,492
145804,507,514,499
145807,503,528,506
145810,510,478,475
145814,506,496,482
145818,501,508,500
145822,509,540,597
145826,506,584,641
145830,500,485,482
145835,505,447,439
145839,505,450,439
145843,512,488,463
145847,502,555,545
145851,504,523,532
145855,508,464,459
145859,510,470,464
145862,514,494,479
145865,497,488,479
145869,499,498,495
145873,503,485,506
145878,516,503,525
145882,513,535,537
145886,502,521,494
145890,497,491,490
145894,496,523,547
145898,511,546,546
145902,512,473,500
145906,492,479,505
145910,496,474,498
145914,502,524,536
145917,508,518,523
145921,508,494,500
145925,501,515,536
145929,516,523,515
145933,518,506,476
145937,511,479,500
145941,506,454,481
145945,512,484,492
145949,513,489,482
145953,506,483,500
145957,501,500,506
145961,506,501,493
145966,509,509,506
145970,500,512,515
145974,518,504,500
145978,525,518,508
145982,510,553,545
145986,508,558,524
145990,496,556,523
145994,497,522,505
145998,501,478,476
146002,508,468,478
146007,510,470,492
146011,502,470,475
146015,499,494,478
146019,505,517,508
146023,502,549,557
146027,517,543,569
146030,520,566,587
146033,512,503,476
146037,504,468,451
146041,502,478,478
146045,514,473,487
146050,512,496,507
146054,513,502,512
146058,513,509,510
146062,494,499,512
146066,497,505,506
146070,509,498,495
146074,511,512,509
146078,513,496,510
146082,519,499,515
146085,506,528,525
146088,518,512,514
146093,534,481,483
146097,516,483,496
146101,492,491,495
146105,504,481,498
146109,514,483,492
146113,505,490,505
146117,500,536,510
146121,504,552,506
146125,516,573,549
146129,524,503,508
146134,499,465,488
146138,492,474,517
146142,501,517,527
146145,505,513,509
146149,509,525,522
146153,508,522,505
146157,501,505,497
146161,508,525,541
146165,516,539,538
146169,518,531,507
146173,524,506,486
146178,518,489,478
146182,512,480,493
146186,500,460,479
146190,501,474,494
146194,509,521,539
146198,517,524,520
146201,515,498,500
146205,500,514,507
146209,504,501,494
146213,504,497,494
146217,508,540,510
146222,517,517,542
146226,502,486,511
146230,495,484,507
146234,502,540,551
146238,513,529,524
146242,526,489,493
146246,527,501,486
146250,513,505,483
146254,499,519,507
146257,500,516,538
146262,501,523,548
146266,510,534,509
146270,514,482,475
146274,525,467,483
146278,522,503,492
146282,509,494,515
146286,497,527,531
146290,504,522,496
146294,507,523,484
146298,505,551,531
146302,510,505,533
146307,519,516,524
146311,514,506,525
146314,505,502,532
146318,505,514,507
146322,500,485,493
146326,510,483,489
146330,514,491,503
146334,516,488,502
146338,530,485,498
146342,525,536,528
146347,497,540,534
146351,492,518,498
146355,508,515,493
146359,526,492,479
146363,522,538,501
146367,495,514,517
146370,500,492,470
146374,501,505,503
146378,509,530,542
146382,515,520,516
146386,507,520,523
146391,505,511,515
146395,504,551,537
146399,506,517,499
146403,514,457,499
146407,516,469,504
146411,505,488,501
146415,505,522,512
146419,525,525,511
146423,536,535,513
146426,511,511,535
146430,497,517,538
146435,493,510,506
146439,507,510,497
146443,510,492,478
146447,511,498,481
146451,508,552,507
146455,517,558,577
146459,513,522,540
146463,508,474,467
146467,509,494,501
146471,517,487,489
146476,511,502,506
146480,509,513,528
146483,502,529,530
146487,514,524,530
146491,522,512,507
146495,499,516,493
146499,499,487,484
146503,504,497,490
146507,509,508,481
146511,510,499,482
146515,515,519,508
146520,512,503,510
146524,500,497,513
146528,509,513,533
146532,506,517,535
146536,509,511,503
146539,499,480,469
146543,512,487,501
146547,506,534,567
146551,514,536,514
146555,516,508,481
146560,508,522,512
146564,505,537,539
146568,511,504,486
146572,513,487,494
146576,520,491,508
146580,502,494,439
146584,498,535,478
146588,510,532,540
146592,510,510,535
146595,509,483,512
146599,524,492,498
146604,516,490,495
146608,508,509,490
146612,503,495,506
146616,519,527,522
146620,510,561,546
146624,499,551,560
146628,500,486,505
146632,501,478,490
146636,496,509,492
146640,497,506,509
146644,502,510,525
146649,501,527,519
146652,518,532,518
146656,511,524,532
146660,494,484,490
146664,499,487,473
146668,504,520,499
146672,523,503,510
146676,534,508,521
146680,509,503,511
146684,499,506,512
146689,502,500,507
146693,500,486,508
146697,498,490,524
146701,508,527,523
146705,526,516,509
146708,516,500,489
146712,501,501,500
146716,499,509,579
146720,497,566,615
146724,499,526,510
146728,522,492,454
146733,525,512,470
146737,519,492,498
146741,507,488,500
146745,508,514,500
146749,508,519,514
146753,520,503,485
146757,507,487,484
146761,500,482,518
146764,505,501,524
146768,504,499,514
146772,494,531,535
146777,499,546,531
146781,506,527,519
146785,525,511,539
146789,528,536,558
146793,512,514,540
146797,500,497,522
146801,495,510,480
146805,499,504,487
146809,510,466,489
146813,530,496,493
146818,513,487,485
146821,500,535,497
146825,499,518,512
146829,509,478,498
146833,515,508,492
146837,503,534,506
146841,507,532,531
146845,512,522,563
146849,507,482,493
146853,513,444,442
146857,506,501,520
146862,502,547,559
146866,515,540,576
146870,514,547,538
146874,516,493,479
146877,519,518,526
146881,514,584,579
146885,513,528,467
146889,499,467,458
146893,506,466,482
146897,522,495,504
146902,513,484,521
146906,505,511,518
146910,499,513,517
146914,509,488,517
146918,515,541,560
146922,517,525,550
146926,520,487,491
146930,506,487,491
146933,504,498,486
146937,506,498,524
146941,505,483,492
146946,517,494,509
146950,519,498,540
146954,511,542,591
146958,508,569,569
146962,512,528,487
146966,503,505,475
146970,510,497,491
146974,516,514,511
146978,509,514,484
146982,508,485,465
146987,507,526,539
146990,506,584,614
146994,505,544,528
146998,503,485,463
147002,504,494,492
147006,511,512,503
147010,528,491,498
147014,514,501,511
147018,502,515,525
147022,495,530,541
147026,495,521,546
147031,505,535,573
147035,525,530,486
147039,516,513,462
147042,503,515,494
147045,493,552,526
147049,499,501,497
147053,498,501,492
147057,506,479,460
147061,508,517,521
147065,505,535,550
147069,515,566,575
147074,524,531,534
147078,509,525,543
147082,498,514,480
147086,499,452,452
147090,499,486,478
147094,511,579,489
147097,520,510,487
147100,514,459,483
147104,511,471,508
147108,500,476,497
147112,504,532,553
147117,505,570,544
147121,507,499,481
147125,510,491,499
147129,511,519,570
147133,512,546,570
147137,504,497,496
147141,506,519,494
147145,510,517,488
147149,505,524,488
147152,512,510,507
147155,510,552,556
147160,499,519,509
147164,502,480,483
147168,505,505,485
147172,507,487,491
147176,506,520,509
147180,517,508,485
147184,519,489,486
147188,506,508,500
147192,510,538,550
147196,506,488,508
147201,507,474,490
147205,505,497,508
147208,514,511,514
147211,523,529,521
147215,506,540,565
147219,503,527,521
147223,508,498,492
147227,505,527,501
147231,509,531,531
147235,513,526,481
147239,510,465,464
147244,511,453,478
147248,510,492,528
147252,514,549,575
147256,507,520,514
147260,511,477,467
147264,512,511,506
147267,513,523,502
147271,504,514,505
147275,498,509,496
147279,506,533,523
147283,512,532,516
147288,506,516,503
147292,515,505,518
147296,511,483,506
147300,505,505,522
147304,510,530,519
147308,511,539,514
147312,507,502,479
147316,509,479,499
147320,511,504,511
147323,516,540,539
147328,502,505,502
147332,502,480,508
147336,503,471,535
147340,505,495,535
147344,497,563,566
147348,500,557,529
147352,502,510,507
147356,508,492,484
147360,515,489,467
147364,510,499,483
147368,505,536,555
147373,508,521,506
147377,505,490,470
147380,507,484,457
147384,508,501,473
147388,505,509,535
147392,514,503,537
147396,523,503,503
147400,506,518,543
147404,514,545,523
147408,516,481,479
147412,507,465,492
147417,500,531,556
147421,501,539,551
147425,509,487,506
147429,507,492,498
147433,507,475,483
147436,502,479,489
147440,507,507,490
147444,507,518,480
147448,502,511,487
147452,501,506,507
147457,498,480,486
147461,504,509,482
147465,512,521,529
147469,513,538,551
147473,507,480,511
147477,502,513,516
147481,508,507,506
147485,509,478,482
147489,511,476,467
147492,514,453,485
147496,504,448,488
147501,509,505,513
147505,509,553,542
147509,505,519,509
147513,506,512,496
147517,509,506,495
147521,501,531,507
147525,503,557,536
147529,512,563,558
147533,507,513,521
147537,505,449,477
147542,503,435,479
147546,501,473,496
147549,506,505,512
147553,511,530,503
147557,509,537,530
147561,504,546,561
147565,508,509,503
147569,518,512,507
147573,522,513,515
147577,510,494,512
147581,501,493,524
147586,497,512,489
147590,507,472,479
147594,505,518,481
147598,507,529,501
147602,514,497,508
147605,513,496,500
147609,506,490,506
147613,513,491,508
147617,512,490,497
147621,520,498,495
147625,515,524,515
147630,506,531,557
147634,499,568,590
147638,497,541,516
147642,503,495,447
147646,508,500,482
147650,529,509,509
147654,516,523,560
147658,499,570,579
147661,498,479,479
147665,507,447,465
147670,503,474,469
147674,505,495,474
147678,509,527,489
147682,507,518,512
147686,510,491,492
147690,504,487,500
147694,507,503,530
147698,506,518,543
147702,504,492,511
147706,503,515,501
147710,501,487,498
147715,504,511,502
147718,516,539,534
147722,513,519,510
147726,509,496,490
147730,512,496,504
147734,500,489,496
147738,502,533,497
147742,510,513,493
147746,511,497,518
147750,511,516,519
147755,506,527,510
147759,494,498,504
147763,501,520,510
147767,508,542,528
147771,504,503,497
147774,503,511,496
147778,512,516,508
147782,506,529,538
147786,508,494,496
147790,505,473,480
147794,516,506,519
147799,515,529,527
147803,504,524,545
147807,508,495,487
147811,520,479,479
147815,508,479,493
147819,503,506,507
147823,507,520,495
147827,514,533,480
147830,504,497,488
147834,498,542,546
147838,511,507,512
147843,509,499,486
147847,502,520,491
147851,503,492,500
147855,507,484,488
147859,507,504,489
147863,497,507,503
147867,507,523,525
147871,518,524,536
147875,512,511,506
147879,502,484,476
147884,493,500,491
147887,509,533,515
147891,517,509,523
147895,505,500,517
147899,499,494,516
147903,501,496,510
147907,501,480,494
147911,513,496,499
147915,513,513,503
147919,496,514,507
147923,496,520,498
147928,499,496,491
147932,505,558,523
147936,506,575,584
147940,509,515,526
147943,510,490,488
147947,499,486,495
147951,502,481,498
147955,508,495,501
147959,514,498,501
147963,517,514,517
147968,507,504,512
147972,495,517,503
147976,494,507,494
147980,506,498,504
147984,522,504,500
147988,511,489,480
147992,505,503,504
147996,507,524,533
147999,502,537,531
148003,500,529,526
148007,503,520,500
148012,508,484,490
148016,500,487,493
148020,513,510,500
148024,519,509,507
148028,504,512,528
148032,503,513,524
148036,506,512,532
148040,508,523,498
148044,506,500,492
148048,504,517,520
148052,509,536,506
148056,519,524,486
148060,508,497,489
148064,499,510,500
148068,496,517,518
148072,505,523,532
148076,509,517,520
148080,501,492,500
148084,502,488,500
148088,504,511,520
148092,505,506,499
148097,511,518,510
148101,507,495,505
148105,507,502,515
148109,503,517,510
148112,504,497,504
148116,506,506,502
148120,512,510,503
148124,510,511,530
148128,504,513,528
148132,508,502,502
148136,503,502,507
148141,499,508,500
148145,504,497,503
148149,501,488,494
148153,502,498,514
148157,503,502,508
148161,513,523,503
148165,502,528,514
148168,503,501,502
148172,503,486,498
148176,505,507,507
148180,511,510,510
148185,514,517,516
148189,517,505,508
148193,518,508,523
148197,507,508,518
148201,499,497,492
