164392,510,515,516
164397,510,508,516
164401,510,505,513
164405,508,508,509
164409,510,511,507
164413,510,512,508
164417,508,509,511
164420,506,506,514
164424,505,506,513
164428,504,508,512
164432,502,508,511
164436,505,503,512
164441,507,503,513
164445,507,508,514
164449,508,509,513
164453,506,506,511
164457,509,505,510
164461,506,505,506
164465,507,507,504
164469,507,511,506
164473,506,505,505
164476,507,503,505
164480,510,505,504
164484,512,509,504
164488,509,512,506
164492,506,511,507
164496,507,507,506
164500,510,510,507
164504,509,515,504
164508,509,515,505
164512,506,511,502
164516,505,508,499
164520,505,514,503
164525,508,521,507
164529,508,517,505
164532,505,514,506
164535,507,511,510
164539,508,513,510
164543,508,515,509
164547,508,512,507
164551,507,507,505
164555,505,507,505
164559,507,511,506
164563,510,511,505
164568,509,508,505
164572,503,506,508
164576,501,506,508
164580,507,509,509
164584,504,509,509
164588,502,504,507
164591,505,505,505
164595,509,510,504
164599,505,511,505
164603,503,507,508
164608,503,505,508
164612,504,507,509
164616,507,510,509
164620,507,512,508
164624,504,510,507
164628,503,508,506
164632,505,507,504
164636,507,508,504
164640,507,509,507
164644,505,507,507
164647,504,507,509
164652,507,508,508
164656,510,508,509
164660,512,506,509
164664,509,502,507
164668,507,504,506
164672,508,508,507
164676,511,511,506
164680,514,511,502
164684,511,511,503
164688,506,510,510
164692,507,509,512
164697,508,511,510
164701,507,509,508
164704,506,507,509
164708,506,508,508
164712,508,511,506
164716,509,512,507
164720,509,513,507
164724,507,512,509
164728,506,511,510
164732,507,512,511
164737,506,513,513
164741,508,510,510
164745,508,505,510
164749,506,506,512
164753,507,510,511
164757,508,510,509
164760,507,508,510
164764,505,505,513
164768,505,505,514
164772,510,504,512
164776,508,503,512
164781,504,503,512
164785,502,506,511
164789,506,510,509
164793,509,514,510
164797,507,514,510
164801,504,511,509
164805,505,512,509
164809,509,514,508
164813,509,513,507
164816,507,509,508
164820,504,507,510
164825,507,506,510
164829,510,504,509
164833,509,504,509
164837,505,505,506
164841,504,503,508
164845,507,508,511
164849,509,508,509
164853,509,507,506
164857,508,503,506
164861,510,504,507
164866,509,506,506
164870,506,512,506
164873,506,514,507
164877,505,511,506
164881,504,511,506
164885,509,513,506
164889,511,515,506
164893,507,515,507
164897,505,518,505
164901,506,520,506
164905,510,517,507
164910,509,512,508
164914,508,513,511
164918,505,511,509
164922,506,512,509
164926,509,515,508
164929,510,517,508
164933,509,514,508
164937,510,509,507
164941,510,509,506
164945,509,512,507
164950,512,513,508
164954,508,510,506
164958,506,507,507
164962,508,508,510
164966,512,511,513
164970,512,511,512
164974,508,508,510
164978,507,508,506
164982,508,509,505
164985,509,511,507
164989,510,514,508
164994,510,516,511
164998,510,516,511
165002,511,516,512
165006,509,512,511
165010,509,509,511
165014,507,505,509
165018,509,505,507
165022,511,511,510
165026,506,513,511
165030,507,509,509
165035,510,508,506
165039,510,510,509
165042,511,513,510
165046,509,513,512
165050,509,509,511
165054,509,508,512
165058,510,509,513
165062,509,513,511
165066,507,513,509
165070,506,511,509
165074,507,508,507
165079,508,511,506
165083,511,513,508
165087,507,509,507
165091,505,509,507
165095,505,510,510
165098,508,508,510
165101,508,509,509
165105,505,508,509
165109,506,505,510
165113,506,506,511
165117,508,509,511
165122,509,511,511
165126,507,509,510
165130,506,508,511
165134,508,509,513
165138,506,509,512
165142,506,507,511
165146,507,504,510
165150,508,505,511
165154,508,507,513
165158,509,510,513
165163,507,511,509
165167,504,509,508
165171,502,510,511
165175,504,509,512
165179,506,508,511
165183,504,507,510
165187,503,508,510
165191,503,512,511
165195,504,511,510
165199,505,514,510
165203,506,515,512
165208,506,514,512
165211,509,514,511
165214,508,516,514
165218,508,515,515
165222,506,510,514
165226,504,508,515
165230,504,509,513
165234,504,512,514
165238,505,512,514
165242,507,506,513
165246,506,501,514
165251,506,504,511
165255,507,509,508
165259,503,508,508
165263,502,504,508
165267,504,504,508
165270,508,506,508
165274,507,509,508
165278,503,508,507
165282,504,505,507
165286,507,505,508
165291,508,509,507
165295,507,511,507
165299,506,508,506
165303,505,503,504
165307,505,504,503
165311,509,509,508
165315,508,513,509
165319,504,506,504
165323,502,503,504
165326,504,506,505
165330,505,509,506
165335,506,512,506
165339,506,512,504
165343,506,511,505
165347,507,512,508
165351,508,513,508
165355,509,513,508
165359,507,510,506
165363,505,510,506
165367,503,512,507
165371,503,513,506
165376,504,513,504
165380,507,507,505
165383,506,505,506
165387,508,510,509
165391,509,514,511
165395,507,510,508
165399,506,506,506
165403,505,509,510
165407,505,514,512
165411,506,513,513
165415,508,513,513
165420,506,510,514
165424,505,506,514
165428,506,506,510
165432,503,507,507
165436,502,506,510
165439,502,507,513
165443,505,506,513
165447,508,508,512
165451,508,506,511
165455,509,504,508
165459,509,504,510
165464,505,506,510
165468,505,509,510
165472,504,507,510
165476,504,505,511
165480,506,506,510
165484,509,510,511
165488,510,514,510
165492,509,510,509
165495,506,504,510
165499,508,502,508
165504,507,506,507
165508,505,511,505
165512,504,510,508
165516,505,508,509
165520,505,510,507
165524,505,512,506
165528,506,513,508
165532,505,510,508
165536,506,510,508
165540,507,511,509
165544,508,514,510
165549,509,513,510
165552,508,510,510
165556,505,510,512
165560,509,510,511
165564,509,516,511
165568,509,517,511
165572,507,511,511
165576,507,510,511
165580,509,511,510
165584,513,515,511
165588,508,512,510
165593,506,506,512
165597,507,507,514
165601,509,509,514
165605,508,509,512
165608,506,507,511
165612,508,506,511
165616,511,507,512
165620,512,509,511
165624,511,509,511
165628,506,507,510
165633,504,505,511
165637,506,508,510
165641,510,511,509
165645,510,510,510
165649,504,508,509
165653,504,508,509
165657,509,510,511
165661,511,510,512
165664,507,508,513
165668,505,507,512
165672,507,506,513
165677,509,512,517
165681,508,513,516
165685,507,510,513
165689,508,508,511
165693,509,510,511
165697,509,510,510
165701,508,508,510
165705,507,508,511
165709,506,505,511
165713,508,507,509
165718,510,509,510
165721,509,512,511
165725,508,510,511
165729,507,505,511
165733,508,506,511
165737,507,509,509
165741,506,510,510
165745,506,508,511
165749,509,506,510
165753,511,508,509
165757,512,512,509
165762,508,512,509
165766,503,506,508
165770,503,503,507
165774,504,507,506
165777,505,511,508
165780,506,510,507
165784,508,507,511
165788,510,505,512
165792,511,506,511
165796,508,510,508
165800,508,508,509
165805,508,506,511
165809,509,506,512
165813,510,506,512
165817,511,505,511
165821,509,506,510
165825,507,504,507
165829,507,506,511
165832,508,511,512
165835,508,511,510
165839,507,507,510
165843,508,506,510
165848,507,513,510
165852,508,516,512
165856,508,511,512
165860,506,505,510
165864,505,504,508
165868,508,511,510
165872,510,515,511
165876,508,511,513
165880,504,508,512
165884,506,509,513
165889,506,509,512
165892,503,506,510
165896,502,505,507
165900,504,506,507
165904,506,509,507
165908,509,509,510
165912,512,509,511
165916,509,509,511
165920,507,508,511
165924,509,509,512
165928,509,512,511
165933,507,514,511
165937,505,510,514
165941,504,508,513
165945,505,507,512
165948,506,510,509
165952,504,510,508
165956,506,509,508
165960,503,508,507
165964,504,509,506
165968,507,509,506
165972,506,508,505
165977,502,508,507
165981,503,510,508
165985,506,512,506
165989,508,511,507
165993,507,510,509
165997,506,512,513
166001,507,515,512
166004,509,515,512
166008,509,512,510
166012,506,511,510
166017,507,512,507
166021,511,510,505
166025,513,510,506
166029,508,510,506
166033,504,508,505
166037,507,506,510
166041,511,505,511
166045,512,504,509
166049,511,502,510
166053,511,502,507
166057,509,505,505
166061,508,507,506
166065,507,508,509
166069,507,502,509
166073,507,503,509
166077,509,506,510
166081,511,512,510
166085,510,514,510
166089,510,512,510
166093,510,510,507
166097,511,510,506
166102,510,513,508
166106,509,512,509
166110,507,508,508
166114,506,509,508
166117,508,511,510
166121,509,513,511
166125,510,509,507
166129,509,506,505
166133,509,508,505
166137,512,508,506
166141,508,508,506
166146,504,508,505
166150,503,506,504
166154,504,507,505
166158,506,509,504
166162,507,510,506
166166,504,508,508
166170,505,505,506
166173,509,505,507
166177,509,508,506
166181,508,510,506
166185,507,508,506
166190,506,508,506
166194,505,506,508
166198,506,509,509
166202,505,510,508
166206,504,506,504
166210,505,503,504
166214,507,506,506
166218,506,509,508
166222,505,508,506
166226,506,505,505
166230,505,507,505
166234,504,510,505
166238,504,511,505
166242,503,505,504
166246,502,504,505
166250,504,506,507
166254,507,509,507
166258,508,508,509
166262,506,506,509
166266,505,503,509
166270,506,504,508
166275,507,508,507
166279,508,511,509
166283,506,509,508
166286,505,506,512
166290,507,508,512
166294,508,510,511
166298,507,506,508
166302,507,505,509
166306,503,507,509
166310,507,511,508
166315,509,515,507
166319,507,515,508
166323,506,510,506
166327,505,509,507
166331,505,510,507
166335,506,512,507
166339,504,512,507
166342,502,509,506
166346,506,506,505
166350,508,511,505
166354,508,514,505
166359,509,511,505
166363,510,508,508
166367,509,508,510
166371,509,514,510
166375,509,511,511
166379,508,506,512
166383,507,501,510
166387,512,502,509
166391,511,510,509
166395,507,513,509
166398,506,509,510
166403,506,507,509
166407,507,508,508
166411,509,508,506
166415,509,505,505
166419,507,504,506
166423,509,504,508
166427,509,508,508
166431,508,511,508
166435,508,509,508
166439,508,506,509
166444,507,507,511
166448,510,509,511
166452,512,511,510
166455,508,507,507
166459,509,504,509
166463,511,508,512
166467,513,508,510
166471,510,508,508
166475,507,505,509
166479,506,505,511
166483,507,509,510
166488,510,511,508
166492,507,510,508
166496,503,507,506
166500,504,507,507
166504,507,511,508
166508,507,511,509
166511,505,510,510
166515,506,508,511
166519,510,509,511
166523,508,509,510
166528,507,511,510
166532,507,509,510
166536,507,508,511
166540,507,507,510
166544,508,510,510
166548,508,510,511
166552,509,507,513
166556,508,506,515
166560,509,507,515
166564,510,509,515
166567,511,506,515
166572,509,501,513
166576,508,503,511
166580,505,507,515
166584,508,509,518
166588,509,506,517
166592,507,505,515
166596,510,506,514
166600,511,509,512
166604,514,512,511
166608,514,510,512
166612,509,505,513
166617,506,506,513
166621,510,510,514
166624,509,511,516
166627,506,510,514
166631,504,509,509
166635,506,509,509
166639,509,510,508
166643,511,510,508
166647,509,511,510
166651,507,512,511
166656,508,511,512
166660,509,511,514
166664,508,509,514
166668,506,508,510
166672,505,510,509
166676,507,512,508
166680,510,513,507
166683,509,512,506
166687,505,509,505
166691,506,507,507
166695,510,509,508
166700,509,512,508
166704,507,512,505
166708,505,509,508
166712,504,509,510
166716,504,513,511
166720,507,510,510
166724,508,505,508
166728,505,505,508
166732,506,508,509
166736,510,508,511
166739,510,508,509
166744,508,506,507
166748,509,505,507
166752,511,508,510
166756,509,512,509
166760,508,514,509
166764,505,512,508
166768,505,511,505
166772,505,512,505
166776,507,516,505
166780,507,516,505
166785,506,512,505
166789,506,511,503
166793,508,515,504
166796,506,516,506
166800,505,511,507
166804,507,503,506
166808,509,504,506
166812,510,507,505
166816,509,511,506
166820,505,510,507
166824,503,509,508
166829,506,509,508
166833,508,511,508
166837,509,514,510
166841,509,511,509
166845,507,509,508
166849,506,510,508
166852,508,514,506
166856,509,517,507
166860,507,517,508
166864,508,514,511
166868,510,511,511
166873,510,511,509
166877,509,509,507
166881,506,505,504
166885,507,506,504
166889,510,507,507
166893,512,508,508
166897,507,507,506
166901,504,505,507
166905,506,509,511
166908,508,513,512
166913,510,510,512
166917,510,506,512
166921,509,506,512
166925,508,508,509
166929,510,509,508
166933,510,512,507
166937,506,511,509
166941,507,509,511
166945,506,510,509
166949,507,513,508
166953,509,512,509
166958,508,508,511
166962,507,509,509
166965,506,510,508
166969,508,512,509
166973,508,511,508
166977,507,508,509
166981,507,508,510
166985,507,510,511
166989,507,513,510
166993,507,510,508
166998,503,504,509
167002,503,506,510
167006,504,512,513
167010,507,514,514
167014,508,507,511
167018,505,503,508
167021,507,507,507
167025,507,511,509
167029,506,513,511
167033,506,511,511
167037,506,509,510
167042,507,511,511
167046,508,517,512
167050,506,518,509
167054,503,514,509
167058,505,510,510
167062,509,509,510
167066,510,512,510
167070,510,508,509
167074,508,505,508
167077,508,509,507
167081,507,513,508
167086,507,515,509
167090,507,513,509
167094,507,511,510
167098,508,510,509
167102,508,512,509
167106,508,512,510
167110,509,510,510
167114,506,510,511
167118,504,509,510
167122,505,511,510
167127,505,511,508
167131,505,509,509
167134,505,508,509
167138,507,508,506
167142,509,510,506
167146,510,509,506
167150,509,508,505
167154,507,508,505
167158,505,510,504
167162,505,511,504
167166,505,512,506
167171,505,511,510
167175,508,510,509
167179,508,510,508
167183,508,509,511
167187,508,508,511
167190,510,508,510
167194,511,510,510
167198,510,511,510
167202,508,510,508
167206,507,508,505
167211,509,508,505
167215,508,511,506
167219,509,516,506
167223,508,519,507
167227,508,515,508
167231,506,512,510
167235,507,513,509
167239,509,517,509
167243,507,516,507
167246,508,512,507
167249,507,514,509
167254,508,516,510
167258,508,515,509
167262,508,511,507
167266,507,508,508
167270,508,508,509
167274,512,512,508
167278,512,514,508
167282,509,512,508
167286,506,510,509
167290,509,513,510
167294,511,515,510
167299,509,514,510
167303,506,509,509
167306,505,506,511
167310,506,507,512
167314,507,510,513
167318,506,513,513
167322,505,509,511
167326,504,507,511
167330,509,511,513
167334,511,514,512
167339,508,511,507
167343,505,507,512
167347,506,507,513
167351,509,508,511
167355,511,509,509
167359,510,506,508
167362,507,505,509
167366,506,507,511
167370,507,510,513
167374,507,512,512
167378,507,509,511
167383,506,510,512
167387,508,515,513
167391,510,517,512
167395,510,516,512
167399,509,514,511
167403,508,516,512
167407,509,513,512
167411,511,513,513
167415,508,512,513
167418,507,508,512
167422,506,505,512
167427,506,507,511
167431,507,509,511
167435,506,507,511
167439,504,500,511
167443,503,499,511
167447,506,502,510
167451,508,505,511
167455,505,507,512
167459,503,503,509
167463,504,502,509
167468,507,506,505
167472,508,506,504
167475,509,503,507
167479,509,499,507
167483,509,500,504
167487,509,504,505
167491,509,506,507
167495,507,505,508
167499,508,504,507
167503,511,507,506
167507,512,510,507
167512,508,510,505
167516,505,507,506
167520,507,505,506
167524,511,509,507
167528,511,512,506
167531,508,508,506
167535,505,506,507
167539,506,508,509
167543,507,511,509
167547,512,513,508
167552,510,511,506
167556,505,508,506
167560,507,506,505
167564,508,507,506
167568,509,508,506
167572,507,506,505
167576,506,506,505
167580,507,505,507
167584,510,507,508
167587,510,508,509
167591,506,504,506
167596,505,501,501
167600,507,503,504
167604,511,505,507
167608,512,505,507
167612,508,501,507
167616,507,501,504
167620,509,502,506
167624,510,507,508
167628,510,506,509
167632,510,503,507
167636,511,505,505
167641,511,509,505
167644,511,509,506
167648,510,509,507
167652,509,506,508
167656,511,508,510
167660,511,508,510
167664,510,508,510
167668,510,504,509
167672,509,502,509
167676,510,504,509
167681,511,510,509
167685,509,512,509
167689,509,510,510
167693,507,508,509
167697,507,511,508
167700,509,515,509
167704,510,511,510
167708,510,507,509
167712,507,506,511
167716,507,508,511
167720,508,512,510
167725,508,515,511
167729,507,512,512
167733,507,508,512
167737,509,510,512
167741,509,513,512
167745,508,510,513
167749,506,507,510
167753,507,508,508
167756,507,510,508
167760,510,512,512
167764,508,513,513
167769,506,511,513
167773,508,510,513
167777,507,513,512
167781,506,512,513
167785,505,510,514
167789,505,506,513
167793,508,505,511
167797,510,507,511
167801,508,506,510
167805,502,502,510
167810,502,499,513
167813,507,504,514
167817,507,506,513
167821,506,506,512
167825,505,502,511
167829,505,498,509
167833,508,502,510
167837,509,504,509
167841,508,502,509
167845,508,502,511
167849,509,503,511
167854,512,505,511
167858,512,508,511
167862,509,505,509
167866,508,502,507
167869,509,501,508
167872,510,504,508
167876,509,506,509
167880,507,504,509
167884,506,503,509
167888,508,508,508
167892,511,512,507
167897,512,510,508
167901,509,507,506
167905,508,506,507
167909,509,509,508
167913,511,513,511
167917,510,514,509
167921,504,511,507
167925,505,508,512
167928,509,510,512
167932,510,513,510
167937,508,511,508
167941,509,509,508
167945,510,509,510
167949,511,512,512
167953,510,512,510
167957,509,510,509
167961,509,510,509
167965,509,512,509
167969,511,513,509
167973,511,512,508
167977,506,509,505
167982,503,506,507
167985,505,507,507
167989,507,513,508
167993,508,513,509
167997,507,513,511
168001,505,509,511
168005,508,511,512
168009,510,513,512
168013,508,513,511
168017,507,510,510
168022,507,510,509
168026,510,512,509
168030,511,514,512
168034,509,511,511
168038,508,506,511
168041,508,507,509
168045,509,510,506
168049,511,513,507
168053,510,512,508
168057,507,508,507
168061,506,507,510
168066,508,508,510
168070,507,509,508
168074,505,504,508
168078,505,504,508
168082,509,507,510
168086,513,508,510
168090,511,507,511
168094,507,506,510
168097,509,505,510
168101,507,509,509
168105,507,511,510
168110,506,511,510
168114,504,508,510
168118,503,508,510
168122,506,512,508
168126,507,515,508
168130,506,512,507
168134,506,510,504
168138,509,514,504
168142,511,517,505
168146,509,517,504
168151,507,515,504
168154,506,511,503
168158,508,514,507
168162,509,514,507
168166,508,511,506
168170,506,508,506
168174,508,508,509
168178,509,505,508
168182,509,506,506
168186,508,509,505
168190,508,506,506
168195,508,504,505
168199,509,505,507
168203,512,507,508
168207,508,506,505
168210,506,503,504
168214,508,503,505
168218,507,508,506
168222,508,514,507
168226,508,513,509
168230,505,508,509
168235,506,507,508
168239,509,509,507
168243,509,509,507
168247,507,508,506
168251,506,510,507
168255,509,512,509
168259,510,513,508
168263,509,513,507
168266,507,506,508
168270,508,505,508
168274,510,509,507
168279,510,512,508
168283,507,512,507
168287,506,506,506
168291,508,504,506
168295,510,506,504
168299,511,509,505
168303,508,506,507
168307,506,508,509
168311,506,508,510
168315,508,508,510
168320,508,508,508
168323,508,507,506
168327,509,507,505
168331,509,506,505
168335,510,508,507
168339,509,506,510
168343,508,501,512
168347,507,499,508
168351,506,504,507
168355,508,512,507
168359,510,512,510
168364,506,505,512
168368,503,503,513
168372,505,508,511
168376,508,514,510
168379,507,514,514
168383,505,508,513
168387,506,510,512
168391,509,514,510
168395,509,518,511
168399,508,516,510
168403,509,512,511
168408,508,512,512
168412,510,514,510
168416,511,513,509
168420,507,512,507
168424,506,514,504
168428,510,516,505
168432,515,515,506
168435,512,513,507
168439,508,511,507
168443,507,510,509
168448,507,510,511
168452,509,513,511
168456,510,514,511
168460,508,514,509
168464,505,513,508
168468,505,511,507
168472,506,513,506
168476,506,514,506
168480,505,515,508
168484,506,516,510
168488,510,517,510
168492,506,515,508
168496,504,511,506
168500,504,507,512
168504,505,505,513
168508,507,508,512
168512,508,508,513
168516,506,503,512
168520,506,501,512
168524,509,504,513
168528,510,509,512
168532,507,512,512
168537,505,511,513
168541,507,509,513
168545,509,510,513
168548,510,511,514
168551,509,510,512
168555,507,506,509
168559,507,506,507
168563,510,509,508
168567,508,513,512
168571,504,515,513
168576,504,513,510
168580,506,513,508
168584,507,514,507
168588,510,517,510
168592,511,515,511
168596,509,510,509
168600,506,509,507
168604,507,512,513
168607,509,511,517
168611,508,510,511
168615,507,510,504
168620,507,510,507
168624,510,509,511
168628,511,511,513
168632,508,512,510
168636,507,514,513
168640,509,514,511
168644,511,512,505
168648,509,513,512
168652,508,509,514
168656,507,506,512
168660,507,510,509
168664,508,516,510
168668,508,514,509
168672,511,509,506
168676,510,506,505
168680,507,508,506
168684,505,511,509
168688,505,511,508
168692,503,508,507
168696,506,509,506
168700,508,513,504
168705,504,513,506
168709,502,512,504
168713,503,510,499
168717,503,513,509
168720,506,514,511
168724,506,514,510
168728,505,510,510
168732,504,507,512
168736,506,509,510
168740,511,512,508
168744,510,509,506
168749,507,504,504
168753,505,505,509
168757,508,509,509
168761,512,515,508
168765,510,513,510
168769,507,508,512
168773,505,506,516
168776,508,508,516
168780,510,509,510
168784,509,505,506
168788,511,504,509
168793,512,506,510
168797,512,507,512
168801,508,507,516
168805,505,505,514
168809,507,503,511
168813,508,506,512
168817,511,509,511
168821,511,512,511
168825,508,512,508
168829,508,509,505
168833,513,511,505
168837,519,513,505
168841,524,510,504
168845,518,508,506
168849,503,509,504
168853,501,511,504
168857,513,516,508
168861,514,518,508
168865,504,516,508
168869,514,513,508
168873,512,515,506
168878,503,517,510
168882,502,516,509
168886,507,514,508
168889,508,512,508
168893,505,515,510
168897,510,517,510
168901,514,515,508
168905,514,512,509
168909,510,514,509
168913,508,515,507
168918,503,514,511
168922,504,510,513
168926,507,509,512
168930,506,511,508
168934,506,514,507
168938,505,512,508
168942,503,507,509
168945,504,505,507
168949,507,509,505
168953,510,514,504
168957,511,516,508
168962,512,511,509
168966,505,511,508
168970,503,511,507
168974,508,511,507
168978,507,510,507
168982,505,511,509
168986,510,509,504
168990,511,514,504
168994,511,520,510
168998,509,512,517
169001,499,511,521
169006,504,510,516
169010,510,511,511
169014,508,513,510
169018,513,507,502
169022,514,503,500
169026,510,509,513
169030,506,508,513
169034,512,506,502
169038,514,502,503
169042,511,502,501
169047,509,511,495
169051,505,515,492
169055,505,510,517
169058,502,504,527
169062,500,499,524
169066,505,507,521
169070,504,507,510
169074,506,505,502
169078,507,512,510
169082,504,506,507
169086,506,505,508
169091,504,507,514
169095,506,512,516
169099,505,508,510
169103,503,514,508
169107,506,516,497
169111,504,512,496
169114,506,526,520
169118,507,509,515
169122,502,508,524
169126,505,508,519
169131,511,507,511
169135,505,497,506
169139,510,497,498
169143,509,511,509
169147,513,509,508
169151,516,507,512
169155,504,505,514
169159,499,510,506
169163,509,511,506
169167,508,501,503
169170,508,484,495
169174,504,497,502
169178,499,507,500
169182,510,507,501
169186,530,510,498
169190,516,500,484
169194,516,502,481
169198,508,506,499
169202,515,504,541
169206,515,500,547
169210,501,497,526
169214,520,496,518
169219,530,489,517
169223,531,501,512
169227,532,514,503
169230,513,501,498
169234,516,502,511
169238,522,507,519
169242,504,498,510
169246,508,511,511
169250,514,514,513
169254,531,509,507
169259,530,497,519
169263,513,501,528
169267,504,508,512
169271,502,521,529
169275,538,501,536
169279,544,520,526
169283,532,498,510
169286,521,498,520
169290,502,516,543
169294,500,525,556
169298,502,510,551
169303,500,502,546
169307,501,490,527
169311,510,500,524
169315,513,510,513
169319,510,516,523
169323,495,521,531
169327,497,507,525
169331,507,502,539
169335,513,510,556
169339,497,511,526
169342,498,510,511
169347,498,495,520
169351,487,496,540
169355,498,522,558
169359,520,518,549
169363,516,525,560
169367,510,521,551
169371,520,520,551
169375,522,503,538
169379,517,519,529
169383,507,502,534
169388,500,498,548
169392,507,488,527
169396,511,534,568
169399,506,525,556
169403,505,504,517
169407,523,482,498
169411,520,494,513
169415,517,480,491
169419,500,508,519
169423,501,541,546
169427,518,518,506
169432,492,525,531
169436,502,532,564
169440,513,511,549
169444,518,505,537
169448,504,486,512
169452,497,486,514
169455,510,498,540
169459,512,536,547
169463,507,501,504
169467,512,516,534
169472,509,501,533
169476,516,524,549
169480,525,513,517
169484,512,479,499
169488,497,488,491
169492,505,495,498
169496,496,481,484
169500,500,485,487
169504,517,527,528
169508,502,530,512
169511,495,496,516
169516,503,552,533
169520,502,552,537
169524,509,508,522
169528,487,493,487
169532,501,502,473
169536,498,528,492
169540,502,522,498
169544,509,496,508
169548,530,527,543
169552,525,522,514
169556,512,532,496
169561,492,519,496
169565,503,491,494
169568,526,505,496
169572,517,492,474
169576,503,503,489
169580,509,495,486
169584,493,527,512
169588,497,516,487
169592,506,496,463
169596,508,478,498
169601,509,516,554
169605,503,511,496
169609,487,457,478
169613,499,499,535
169617,505,532,527
169621,519,535,500
169624,507,493,485
169628,489,515,510
169632,498,496,466
169636,496,499,461
169640,519,543,555
169645,505,534,500
169649,491,475,440
169653,499,492,467
169657,509,527,482
169661,488,478,492
169665,515,515,519
169669,505,492,474
169673,506,487,474
169677,510,540,525
169680,505,554,558
169684,511,553,540
169689,483,490,476
169693,495,520,488
169697,499,498,459
169701,500,499,459
169705,502,526,476
169709,492,545,493
169713,474,526,519
169717,503,504,492
169721,527,543,527
169725,513,546,531
169730,493,547,495
169734,483,519,496
169737,495,497,488
169741,506,536,499
169745,529,548,517
169749,523,492,502
169753,512,480,508
169757,515,450,484
169761,500,475,506
169765,477,522,554
169769,483,482,474
169774,518,495,451
169778,515,507,473
169782,507,502,488
169786,501,507,471
169790,502,509,471
169793,511,520,463
169797,500,542,533
169801,500,547,553
169805,494,511,477
169809,494,494,464
169814,499,503,489
169818,512,555,519
169822,520,544,533
169826,500,557,581
169830,489,546,512
169834,508,499,466
169838,503,508,514
169842,502,538,561
169846,500,479,469
169849,526,471,445
169853,514,479,455
169858,503,477,473
169862,495,494,488
169866,514,514,479
169870,519,508,492
169874,503,526,535
169878,505,538,506
169882,488,542,529
169886,488,565,555
169890,500,562,560
169894,501,524,506
169899,496,487,467
169903,501,495,492
169906,510,526,554
169910,503,536,544
169914,501,514,466
169918,501,494,456
169922,507,526,508
169926,513,553,549
169930,505,548,529
169934,492,503,475
169938,513,481,455
169943,509,479,467
169947,505,487,473
169951,505,524,499
169955,511,508,502
169959,525,480,489
169962,508,486,499
169965,500,489,501
169969,499,493,500
169973,516,511,526
169977,493,553,570
169981,483,552,543
169986,490,524,489
169990,501,514,487
169994,510,488,500
169998,510,483,482
170002,510,478,478
170006,516,509,512
170010,504,518,519
170014,496,593,625
170018,493,587,615
170021,504,473,453
170025,516,459,432
170030,513,461,450
170034,496,493,478
170038,506,535,448
170042,535,507,464
170046,519,488,480
170050,508,501,509
170054,500,496,502
170058,492,499,502
170062,497,516,533
170066,496,509,523
170071,508,509,532
170074,514,539,571
170077,497,491,495
170081,497,443,450
170085,510,469,460
170089,504,509,470
170093,496,500,475
170097,508,513,504
170101,525,528,490
170105,517,533,534
170109,503,547,529
170114,508,502,469
170118,522,471,479
170122,513,484,487
170126,514,495,505
170130,503,549,537
170133,512,562,534
170137,527,504,489
170141,524,480,481
170145,505,504,503
170149,492,499,488
170153,500,507,514
170158,494,540,555
170162,485,516,501
170166,496,503,524
170170,511,530,562
170174,518,561,514
170178,506,484,465
170182,506,474,475
170186,513,469,473
170189,534,465,475
170193,536,469,488
170198,527,483,496
170202,518,501,498
170206,487,550,525
170210,490,527,513
170214,505,492,502
170218,504,536,535
170222,513,533,519
170226,501,505,487
170230,494,514,495
170234,485,488,494
170238,505,485,501
170243,513,488,502
170246,523,498,509
170250,508,514,502
170254,501,499,497
170258,513,527,490
170262,523,510,497
170266,522,506,501
170270,512,531,495
170274,492,531,516
170278,494,504,513
170283,512,549,531
170287,502,520,526
170291,509,442,477
170295,526,454,477
170299,504,479,480
170302,501,526,521
170306,496,501,501
170310,495,483,514
170314,517,493,509
170318,505,498,507
170322,505,520,507
170327,505,497,483
170331,489,503,485
170335,501,519,494
170339,514,526,489
170343,515,519,509
170347,511,494,517
170351,521,500,507
170355,522,506,507
170358,519,525,524
170362,514,542,512
170366,496,515,503
170371,503,479,487
170375,504,487,496
170379,515,512,503
170383,506,500,487
170387,503,550,481
170391,498,536,502
170395,501,510,525
170399,506,494,538
170403,522,485,501
170407,518,492,518
170412,496,484,508
170415,492,488,499
170419,499,526,506
170423,504,515,512
170427,498,502,514
170431,504,493,490
170435,506,524,490
170439,516,545,518
170443,520,512,523
170447,511,501,502
170451,506,527,504
170456,507,517,512
170460,513,522,535
170464,517,509,522
170468,513,498,496
170471,506,497,497
170475,498,515,505
170479,487,517,513
170483,492,500,513
170487,500,529,531
170491,522,534,503
170496,525,526,487
170500,501,502,486
170504,486,497,508
170508,499,495,508
170512,516,498,497
170516,530,508,516
170520,519,516,518
170524,495,536,510
170527,502,523,501
170531,503,510,517
170535,508,516,531
170540,507,522,510
170544,508,504,502
170548,513,497,509
170552,513,480,499
170556,513,489,506
170560,518,524,526
170564,521,515,503
170568,515,511,489
170572,515,517,497
170576,510,554,538
170580,489,555,546
170584,494,506,503
170587,500,510,512
170591,500,493,503
170595,509,489,502
170599,508,509,502
170603,507,510,493
170607,510,497,480
170611,501,509,493
170615,513,513,502
170619,520,490,494
170624,521,512,522
170628,515,548,551
170632,505,523,526
170636,512,491,501
170640,514,501,534
170643,505,519,532
170647,513,519,488
170651,506,528,519
170655,513,510,518
170659,510,524,543
170663,513,548,531
170668,509,499,472
170672,512,476,469
170676,521,482,490
170680,506,497,498
170684,506,529,528
170688,518,518,508
170692,528,501,510
170696,524,483,488
170699,507,497,495
170703,489,528,569
170707,499,562,546
170712,503,472,468
170716,501,471,479
170720,519,507,501
170724,510,523,514
170728,492,504,510
170732,499,464,486
170736,506,497,497
170740,517,522,537
170744,526,542,587
170748,506,505,514
170753,500,486,484
170756,508,492,493
170760,510,520,508
170764,501,533,535
170768,509,513,500
170772,502,510,477
170776,499,492,486
170780,512,494,499
170784,510,517,515
170788,509,517,526
170792,509,504,514
170797,508,488,515
170801,509,506,548
170805,509,554,563
170809,508,486,486
170812,510,463,463
170816,512,492,489
170820,505,534,545
170824,517,521,518
170828,511,485,483
170832,509,474,478
170836,504,480,499
170841,498,503,529
170845,493,541,543
170849,506,518,499
170853,515,503,492
170857,509,500,504
170861,506,503,525
170865,509,529,550
170868,503,526,520
170872,496,489,491
170876,511,471,492
170881,514,517,570
170885,507,520,547
170889,503,485,468
170893,517,495,467
170897,515,503,494
170901,509,528,526
170905,502,538,549
170909,502,517,494
170913,510,492,478
170917,514,501,483
170921,510,523,516
170925,500,512,527
170929,497,490,493
170933,507,496,496
170937,523,499,502
170941,520,519,537
170945,508,538,546
170949,502,508,502
170953,493,523,512
170957,499,517,523
170961,505,548,520
170966,502,508,477
170970,507,494,478
170974,500,491,485
170978,500,511,512
170981,500,516,538
170985,509,526,516
170989,511,510,496
170993,514,492,513
170997,511,499,531
171001,504,528,545
171005,499,553,553
171010,503,534,521
171014,516,495,476
171018,520,486,469
171022,523,493,477
171026,508,504,488
171030,495,515,499
171034,505,518,497
171037,507,496,499
171041,503,508,546
171045,504,534,571
171049,498,526,552
171054,505,502,481
171058,504,502,471
171062,504,486,475
171066,507,499,500
171070,518,525,562
171074,517,561,571
171078,509,512,496
171082,516,488,467
171086,515,469,478
171090,512,492,503
171094,508,495,518
171098,495,488,509
171102,512,511,516
171106,526,540,544
171110,504,520,515
171114,496,479,478
171118,503,492,490
171122,505,507,510
171126,513,494,501
171130,508,512,516
171134,518,514,512
171139,525,505,516
171143,506,522,534
171147,498,511,496
171150,492,507,504
171154,501,524,528
171158,505,507,504
171162,507,481,485
171166,507,527,512
171170,505,520,525
171174,521,502,536
171179,507,537,549
171183,509,531,502
171187,521,500,477
171191,507,502,493
171195,500,503,498
171199,512,534,533
171203,507,510,533
171206,517,497,510
171210,509,494,492
171214,495,490,507
171218,505,494,513
171223,515,488,492
171227,503,506,498
171231,510,522,507
171235,501,551,573
171239,504,518,558
171243,519,500,499
171247,513,487,486
171251,504,484,480
171255,500,497,513
171259,504,524,540
171262,508,507,507
171267,515,483,489
171271,500,494,499
171275,503,520,527
171279,515,521,531
171283,512,511,521
171287,507,499,490
171291,497,511,497
171295,507,510,506
171299,513,501,488
171303,508,491,479
171308,499,498,488
171312,504,468,498
171316,514,507,520
171319,509,530,555
171323,510,533,560
171327,508,517,509
171331,504,501,486
171335,509,492,499
171339,513,503,532
171343,511,517,532
171347,509,492,465
171352,501,488,482
171356,497,496,489
171360,516,482,478
171364,519,479,490
171368,506,497,491
171372,511,506,519
171375,509,534,516
171379,506,508,490
171383,498,491,485
171387,504,514,503
171392,502,546,526
171396,506,510,520
171400,509,499,519
171404,516,509,516
171408,516,507,504
171412,507,529,533
171416,503,516,536
171420,499,500,542
171424,504,497,506
171428,504,506,499
171431,514,502,492
171436,510,506,497
171440,509,501,494
171444,500,544,561
171448,508,534,531
171452,504,498,465
171456,516,494,464
171460,511,486,475
171464,514,468,477
171468,515,468,483
171472,511,523,527
171476,502,520,524
171481,496,522,514
171485,499,512,511
171488,502,506,512
171492,518,521,531
171496,518,569,558
171500,513,527,524
171504,501,467,470
171508,507,465,499
171512,508,538,533
171516,504,519,505
171521,501,476,469
171525,503,482,487
171529,507,498,530
171533,511,562,568
171537,525,546,534
171541,520,502,508
171544,497,498,504
171548,500,513,494
171552,508,508,497
171556,501,518,493
171560,500,521,500
171565,504,497,484
171569,511,497,475
171573,517,497,492
171577,504,494,510
171581,502,519,545
171585,510,515,532
171589,503,490,510
171593,510,494,516
171597,510,509,542
171600,517,511,560
171604,512,528,531
171609,510,535,535
171613,514,551,543
171617,522,514,483
171621,517,475,459
171625,505,510,472
171629,511,476,455
171633,505,478,460
171637,506,544,489
171641,513,540,506
171645,509,514,499
171650,503,547,551
171654,507,492,517
171657,501,500,503
171661,499,491,487
171665,505,477,490
171669,502,499,512
171673,500,515,554
171677,500,540,544
171681,509,509,504
171685,510,484,505
171689,515,522,537
171694,510,540,525
171698,508,545,535
171702,517,530,492
171706,514,486,479
171710,519,487,472
171713,512,513,515
171717,509,485,510
171721,504,480,496
171725,502,494,503
171729,508,512,519
171734,511,514,518
171738,507,518,522
171742,522,516,524
171746,518,525,524
171750,509,531,526
171754,507,581,561
171758,503,562,512
171762,500,469,471
171766,516,451,474
171769,517,466,483
171772,505,534,522
171777,497,519,508
171781,508,469,484
171785,510,508,519
171789,497,533,511
171793,503,518,518
171797,506,495,517
171801,503,495,502
171805,503,482,490
171809,518,510,518
171813,514,572,537
171817,506,528,516
171822,511,502,505
171826,512,510,485
171829,506,519,490
171833,506,510,530
171837,492,475,516
171841,505,505,585
171845,506,551,552
171849,498,494,469
171853,509,479,463
171857,519,502,478
171862,521,537,483
171866,505,523,503
171870,498,532,511
171874,512,504,511
171878,492,535,506
171882,495,512,504
171885,503,502,527
171889,513,505,538
171893,522,513,527
171897,513,578,552
171901,513,529,518
171906,503,480,473
171910,508,481,491
171914,513,505,556
171918,507,531,549
171922,496,495,467
171926,499,470,463
171930,514,488,488
171934,507,524,505
171938,500,515,495
171941,500,504,508
171945,499,516,514
171950,506,528,548
171954,510,545,566
171958,504,495,501
171962,501,475,493
171966,512,496,496
171970,500,524,518
171974,504,566,625
171978,507,572,575
171982,519,493,470
171986,523,471,464
171991,501,449,477
171995,504,464,488
171998,513,530,525
172002,496,559,526
172006,503,508,501
172010,512,487,502
172014,508,520,516
172018,505,525,544
172022,514,499,534
172026,505,493,483
172030,498,492,475
172035,501,508,478
172039,505,529,532
172043,513,538,523
172047,518,505,500
172051,505,507,505
172054,502,508,512
172058,513,492,514
172062,515,508,509
172066,512,522,507
172070,496,524,509
172075,492,513,537
172079,496,502,541
172083,498,483,502
172087,501,549,538
172091,504,575,517
172095,510,522,495
172099,518,507,490
172103,517,529,524
172107,513,496,502
172110,512,494,491
172114,519,540,511
172119,508,543,534
172123,495,485,519
172127,501,518,524
172131,499,522,488
172135,510,484,474
172139,508,454,482
172143,497,499,518
172147,504,512,497
172151,513,517,520
172155,506,517,560
172160,511,507,556
172164,507,487,481
172167,505,490,485
172171,505,528,512
172175,513,538,488
172179,511,506,502
172183,511,517,535
172187,512,561,579
172191,517,571,546
172195,511,509,450
172199,505,471,453
172204,506,471,465
172208,521,496,476
172212,525,524,480
172216,512,543,528
172220,497,475,514
172223,500,451,519
172227,509,471,595
172231,513,540,593
172235,508,490,502
172239,504,489,454
172243,505,483,469
172248,513,514,554
172252,514,603,610
172256,502,569,530
172260,504,471,449
172264,503,449,443
172268,517,470,449
172272,519,488,470
172276,507,475,506
172279,502,485,510
172283,508,503,517
172288,512,490,505
172292,512,511,499
172296,512,545,523
172300,511,502,479
172304,501,478,484
172308,498,496,556
172312,506,526,561
172316,505,479,522
172320,509,542,592
172324,521,630,646
172328,516,516,507
172333,502,478,428
172336,502,522,448
172340,501,482,474
172344,505,438,470
172348,505,459,441
172352,506,499,465
172356,509,444,481
172360,510,456,506
172364,511,496,513
172368,504,522,524
172372,504,515,521
172377,511,540,540
172381,503,564,552
172385,496,562,587
172389,504,517,542
172392,500,467,470
172396,502,494,453
172400,510,568,471
172404,512,591,534
172408,504,498,505
172412,504,489,570
172417,510,524,572
172421,516,504,485
172425,525,490,457
172429,514,469,481
172433,512,516,530
172437,505,514,512
172441,498,485,460
172445,507,482,451
172448,511,538,490
172452,499,537,500
172456,495,508,486
172461,501,523,505
172465,504,521,536
172469,509,516,543
172473,517,484,496
172477,518,494,514
172481,499,505,508
172485,502,529,515
172489,513,549,513
172493,518,496,515
172497,511,506,501
172502,507,541,500
172505,502,490,492
172509,506,470,506
172513,510,495,527
172517,516,524,525
172521,517,530,495
172525,495,526,508
172529,498,486,497
172533,511,496,502
172537,506,495,511
172541,505,537,576
172546,497,540,543
172550,501,538,484
172554,504,523,471
172558,513,489,481
172561,508,485,485
172565,510,503,480
172569,511,535,522
172573,509,540,526
172577,506,508,497
172581,509,512,489
172585,513,513,518
172590,510,491,507
172594,501,509,496
172598,504,545,523
172602,505,531,528
172606,509,499,515
172610,507,512,528
172614,502,484,503
172617,506,480,490
172621,508,489,496
172625,521,505,504
172630,515,511,515
172634,504,556,553
172638,504,522,514
172642,499,480,491
172646,502,484,494
172650,513,496,500
172654,539,513,501
172658,513,506,491
172662,505,508,498
172666,503,513,498
172670,497,541,506
172674,500,521,497
172678,503,511,534
172682,499,522,517
172686,512,493,497
172690,518,520,545
172694,507,520,522
172698,502,493,520
172702,504,499,534
172706,514,503,504
172710,510,534,484
172715,506,499,511
172719,503,527,552
172723,507,527,520
172727,513,484,489
172730,516,505,501
172734,512,556,515
172738,502,513,519
172742,509,462,506
172746,506,453,503
172750,502,506,546
172754,511,517,554
172759,506,525,537
172763,504,490,497
172767,506,470,476
172771,512,511,550
172775,508,556,590
172779,505,518,526
172783,508,479,461
172786,503,480,449
172790,507,503,471
172794,506,496,489
172798,512,520,502
172803,520,512,470
172807,524,496,497
172811,505,515,516
172815,505,509,501
172819,504,524,522
172823,512,485,511
172827,507,488,494
172831,506,486,508
172835,504,479,512
172839,502,479,508
172843,506,492,515
172847,512,531,531
172851,514,575,565
172855,503,535,538
172859,496,478,499
172863,504,500,496
172867,512,530,518
172871,513,542,500
172875,507,489,468
172879,501,467,496
172883,500,501,523
172888,511,471,486
172892,516,473,485
172896,510,493,492
172899,509,511,499
172903,511,501,496
172907,509,525,504
172911,508,511,512
172915,498,502,488
172919,502,515,492
172923,503,510,504
172928,509,521,507
172932,506,522,517
172936,508,516,531
172940,508,517,557
172944,505,507,548
172948,504,482,487
172952,502,501,485
172955,497,501,494
172959,500,514,487
172963,508,524,498
172967,507,536,518
172972,507,526,537
172976,505,517,525
172980,514,495,485
172984,505,506,481
172988,502,521,509
172992,508,501,512
172996,505,510,482
173000,507,522,503
173004,506,540,554
173008,497,507,515
173011,502,510,511
173016,510,496,492
173020,507,480,485
173024,504,480,470
173028,503,491,481
173032,512,516,498
173036,513,517,513
173040,517,524,518
173044,508,516,507
173048,499,520,502
173052,510,533,553
173057,514,540,541
173061,507,528,488
173065,501,506,498
173068,501,499,508
173072,502,508,504
173076,508,493,487
173080,505,554,495
173084,501,516,499
173088,505,493,500
173092,511,505,518
173096,509,518,528
173101,503,519,500
173105,500,509,494
173109,496,507,505
173113,507,507,506
173117,510,517,509
173121,507,517,501
173124,508,485,480
173128,506,485,509
173132,507,505,513
173136,500,501,506
173140,501,507,515
173145,503,534,536
173149,508,543,550
173153,511,512,493
173157,513,508,484
173161,501,517,505
173165,498,520,497
173169,504,520,519
173173,518,512,513
173177,510,496,506
173180,501,533,550
173184,509,546,547
173188,502,523,501
173192,506,525,515
173196,505,524,497
173200,516,485,489
173204,520,509,545
173208,510,563,579
173212,505,517,495
173216,505,448,453
173220,502,511,532
173224,503,554,544
173229,514,457,467
173233,511,462,469
173237,511,480,487
173240,509,493,484
173244,514,503,491
173248,510,494,485
173252,509,526,535
173256,515,553,554
173260,510,516,519
173264,505,527,520
173268,501,511,507
173273,499,484,489
173277,508,502,523
173281,509,526,534
173285,509,518,509
173289,506,504,514
173293,507,482,496
173296,514,465,494
173300,519,497,524
173304,525,525,523
173308,518,550,502
173313,506,516,505
173317,495,488,503
173321,498,516,514
173325,508,526,538
173329,512,507,502
173333,513,503,499
173337,520,529,522
173341,517,505,519
173345,504,531,536
173349,500,491,490
173352,502,481,493
173357,504,529,536
173361,508,531,517
173365,507,516,484
173369,509,525,507
173373,508,574,546
173377,507,501,502
173381,510,469,472
173385,511,474,468
173389,503,486,487
173393,498,498,494
173398,500,507,518
173402,503,521,544
173405,507,514,513
173408,508,508,510
173412,507,520,510
173416,503,512,511
173420,508,488,503
173424,514,507,517
173428,506,532,526
173432,508,515,507
173436,512,503,493
173441,514,512,490
173445,509,511,499
173449,508,492,517
173453,512,503,515
173457,511,527,499
173461,510,487,486
173464,514,497,509
173468,508,490,492
173472,506,460,486
173476,513,485,525
173480,516,515,513
173485,511,518,492
173489,512,506,508
173493,508,506,516
173497,513,513,515
173501,510,515,500
173505,511,523,521
173509,516,493,504
173513,519,509,524
173517,517,496,517
173520,513,532,509
173524,507,523,522
173529,518,537,530
173533,532,521,517
173537,516,503,505
173541,510,485,472
173545,518,501,483
173549,510,508,499
173553,504,527,524
173557,514,507,511
173561,501,517,523
173565,510,526,508
173570,515,523,540
173574,516,539,544
173577,511,500,491
173581,506,490,469
173585,502,480,467
173589,509,486,486
173593,510,499,496
173597,502,511,503
173601,512,492,503
173605,510,494,504
173609,516,507,496
173614,514,497,482
173618,503,491,499
173622,508,533,554
173626,506,534,550
173630,511,487,506
173633,511,560,525
173637,513,536,506
173641,512,485,488
173645,522,502,490
173649,527,516,518
173654,520,513,517
173658,517,496,514
173662,523,487,496
173666,526,501,493
173670,522,517,518
173674,528,542,536
173678,529,525,529
173682,525,497,493
173686,531,490,504
173689,528,497,486
173693,526,499,505
173698,531,522,527
173702,533,516,521
173706,532,494,487
173710,539,509,503
173714,526,524,526
173718,518,534,542
173722,530,530,529
173726,528,513,506
173730,526,508,525
173734,527,529,533
173739,528,480,480
173743,529,494,481
173746,518,493,492
173750,516,495,511
173754,526,518,507
173758,527,498,512
173762,528,487,501
173766,519,504,500
173770,527,517,508
173774,529,524,525
173778,532,536,513
173783,524,513,504
173787,521,513,509
173791,522,514,530
173795,521,511,515
173799,524,538,538
173802,520,507,510
173806,513,471,476
173810,518,518,511
173814,525,511,500
173818,523,502,500
173822,514,526,504
173827,519,510,526
173831,520,540,558
173835,532,519,526
173839,525,473,486
173843,521,488,493
173847,510,477,490
173851,504,508,526
173855,508,538,519
173858,516,510,481
173862,521,491,481
173867,509,501,490
173871,508,514,517
173875,502,508,497
173879,512,509,495
173883,511,500,492
173887,507,519,497
173891,515,505,494
173895,511,508,500
173899,510,547,550
173903,509,519,521
173907,508,503,507
173912,516,484,507
173915,521,520,511
173919,519,521,510
173923,516,506,501
173927,513,513,512
173931,503,505,503
173935,510,490,494
173939,518,484,497
173943,512,514,504
173947,506,515,497
173952,502,523,542
173956,514,535,562
173960,512,498,499
173964,508,489,490
173968,501,520,494
173971,503,520,489
173975,500,484,482
173979,500,493,495
173983,502,513,510
173987,504,519,517
173991,501,527,536
173996,506,522,535
174000,508,490,507
174004,508,480,490
174008,508,488,493
174012,509,509,509
174016,502,503,527
174020,500,506,507
174024,514,522,490
174027,504,494,491
174031,502,505,493
174035,496,523,512
174040,495,519,512
174044,497,529,525
174048,507,547,537
174052,496,506,511
174056,493,488,494
174060,506,488,494
174064,509,491,501
174068,507,506,502
174072,507,518,508
174076,508,506,517
174081,509,515,530
174084,505,536,517
174088,502,531,521
174092,503,506,515
174096,508,493,496
174100,506,496,479
174104,504,502,485
174108,505,501,524
174112,504,523,520
174116,505,536,507
174120,496,496,495
174125,496,488,494
174129,496,501,511
174133,504,519,515
174137,509,533,530
174140,503,503,501
174144,514,478,492
174148,515,483,501
174152,503,492,498
174156,499,518,520
174160,505,517,505
174164,508,495,490
174169,508,520,514
174173,511,539,529
174177,513,525,538
174181,511,479,504
174185,499,477,498
174189,492,508,517
174193,506,530,531
174196,507,530,513
174200,509,508,505
174204,511,497,497
174209,498,509,527
174213,497,499,529
174217,491,498,502
174221,509,500,491
174225,501,512,502
174229,507,500,506
174233,510,497,481
174237,503,503,490
174241,497,491,497
174245,503,482,515
174249,511,509,506
174253,504,514,522
174257,509,545,539
174261,504,523,509
174265,498,488,465
174269,502,498,505
174273,500,507,546
174277,506,502,488
174281,503,505,487
174285,497,508,504
174289,498,546,533
174294,500,561,517
174298,514,495,503
174302,502,492,509
174306,500,507,503
174309,502,501,507
174313,505,509,554
174317,503,508,544
174321,503,511,528
174325,497,524,540
174329,504,518,519
174333,501,509,490
174338,500,487,441
174342,503,482,452
174346,505,490,483
174350,513,510,491
174354,521,521,494
174358,508,510,502
174362,498,491,494
174365,501,497,501
174369,497,506,501
174373,490,500,504
174377,493,476,482
174382,492,508,512
174386,502,546,557
174390,504,546,556
174394,496,527,537
174398,508,549,521
174402,507,505,499
174406,507,472,476
174410,514,486,484
174414,497,504,507
174418,489,523,522
174422,497,538,516
174426,495,495,495
174430,503,495,507
174434,504,497,499
174438,495,500,497
174442,498,507,513
174446,511,499,493
174450,502,506,488
174454,497,503,506
174458,506,514,513
174462,493,506,542
174467,497,514,515
174471,503,520,506
174475,501,499,490
174478,506,500,479
174482,509,537,519
174486,504,528,533
174490,504,510,522
174494,509,499,497
174498,504,504,508
174502,493,504,507
174507,491,499,497
174511,493,509,503
174515,500,509,503
174519,503,498,500
174523,504,514,497
174527,496,525,518
174531,503,502,514
174534,510,521,519
174538,499,529,523
174542,496,495,501
174546,497,492,497
174551,497,497,508
174555,509,495,489
174559,503,507,507
174563,511,510,513
174567,504,510,499
174571,492,513,501
174575,500,539,545
174579,500,521,519
174583,497,500,480
174587,495,498,492
174590,509,514,534
174595,502,494,520
174599,507,497,489
174603,498,498,504
174607,503,485,493
174611,496,516,505
174615,513,517,516
174619,508,514,506
174623,504,517,516
174627,498,528,520
174631,500,499,497
174636,499,491,497
174640,507,497,501
174644,505,511,498
174647,505,510,514
174650,500,507,525
174654,498,518,510
174658,497,533,518
174662,498,506,489
174666,506,491,498
174670,514,515,504
174674,502,504,501
174679,503,475,477
174683,512,485,493
174687,502,503,539
174691,495,515,531
174695,507,483,493
174699,506,505,517
174702,502,489,489
174706,484,475,472
174710,467,511,512
174714,484,532,540
174718,492,527,518
174723,484,524,513
174727,498,510,502
174731,513,526,506
174735,507,526,514
174739,499,511,501
174743,503,507,512
174747,504,509,516
174751,500,506,494
174755,507,504,506
174758,507,499,513
174761,513,500,509
174766,514,494,502
174770,512,522,511
174774,516,527,513
174778,507,513,520
174782,506,508,520
174786,516,497,501
174790,517,506,510
174794,510,520,511
174798,508,511,511
174802,513,501,505
174807,515,497,528
174811,517,493,510
174815,511,504,510
174818,503,535,508
174822,505,529,499
174826,514,522,526
174830,512,517,517
174834,510,513,496
174838,510,503,489
174842,505,478,469
174846,502,514,500
174851,504,538,534
174855,517,521,520
174859,519,508,511
174863,508,519,524
174867,500,517,533
174871,507,506,512
174874,509,509,501
174878,504,497,500
174882,509,496,500
174886,506,477,494
174891,511,505,525
174895,512,535,529
174899,507,519,506
174903,507,511,501
174907,508,507,504
174911,507,505,503
174915,512,511,503
174919,520,510,502
174923,511,509,504
174927,508,501,505
174930,497,514,508
174935,497,507,501
174939,507,507,515
174943,511,522,521
174947,504,517,510
174951,504,507,501
174955,499,504,509
174959,501,508,517
174963,489,516,520
174967,516,511,509
174971,515,505,495
174976,503,511,506
174980,501,517,513
174984,496,515,510
174987,503,510,521
174991,510,506,511
174995,514,503,501
174999,517,507,495
175003,503,519,498
175007,495,520,501
175011,496,510,511
175015,510,507,516
175020,516,511,511
175024,524,512,512
175028,514,515,509
175032,506,517,503
175036,503,519,504
175040,511,516,512
175043,510,524,515
175047,510,513,511
175051,504,504,509
175055,498,507,505
175059,491,516,505
175064,504,513,502
175068,507,507,505
175072,514,500,502
175076,503,499,504
175080,500,503,504
175084,502,509,499
175088,510,507,499
175092,517,502,502
175096,508,502,504
175099,505,507,506
175104,494,508,501
175108,496,508,499
175112,503,507,497
175116,509,506,495
175120,499,509,499
175124,498,506,500
175128,501,504,502
175132,499,508,502
175136,501,507,492
175140,505,504,493
175144,509,506,502
175149,501,509,500
175153,498,511,496
175156,495,507,498
175160,496,507,503
175164,487,508,500
175168,490,503,488
175172,501,503,491
175176,506,503,496
175180,502,501,501
175184,501,499,498
175188,505,499,498
175193,499,505,503
175197,508,507,507
175201,508,507,508
175205,506,499,504
175209,509,495,499
175212,505,502,498
175216,514,510,504
175220,503,515,501
175224,495,510,485
175228,493,504,479
175233,499,502,501
175237,498,503,519
175241,499,504,521
175245,494,505,516
175249,509,506,512
175253,510,509,508
175257,502,509,501
175261,488,504,496
175265,502,505,492
175268,516,510,498
175272,495,513,508
175277,502,513,507
175281,510,513,508
175285,509,510,509
175289,506,508,507
175293,510,509,504
175297,536,512,505
175301,548,506,499
175305,521,498,503
175309,512,505,519
175313,503,511,527
175318,513,510,519
175322,512,507,514
175325,510,507,512
175329,501,508,512
175333,494,511,512
175337,503,509,512
175341,491,507,510
175345,499,508,511
175349,501,512,512
175353,508,512,513
175357,496,512,513
175362,487,512,513
175366,499,513,512
175370,506,508,511
175374,506,506,512
175378,503,506,511
175381,509,509,510
175385,511,508,509
175389,503,510,506
175393,511,514,508
175397,508,511,513
175401,510,508,516
175406,507,510,515
175410,502,512,511
175414,498,512,510
175418,495,512,514
175422,505,511,510
175426,508,514,508
175430,506,514,510
175434,501,517,511
175437,494,517,511
175441,502,515,510
175446,509,511,509
175450,508,513,513
175454,501,513,516
175458,498,511,515
175462,504,510,517
175466,509,512,518
175470,510,513,515
175474,507,510,513
175478,510,508,512
175482,511,510,511
175486,515,516,515
175491,515,516,515
175494,512,515,512
175498,503,512,512
175502,506,513,517
175506,506,511,520
175510,503,512,517
175514,506,510,515
175518,508,510,513
175522,514,513,517
175526,508,516,519
175531,508,513,515
175535,511,512,514
175539,501,514,514
175543,507,517,513
175547,509,519,515
175550,509,515,518
175554,501,514,519
175558,509,516,518
175562,507,513,516
175566,500,512,516
175570,502,510,517
175575,506,510,515
175579,516,512,517
175583,507,514,517
175587,506,514,517
175591,498,512,516
175595,498,512,515
175599,495,512,516
175603,499,509,513
175606,500,508,512
175610,496,506,515
175614,502,506,521
175619,507,508,518
175623,505,505,516
175627,500,506,514
175631,493,507,514
175635,493,506,518
175639,500,508,515
175643,508,509,514
175647,506,504,516
175651,500,501,516
175655,475,506,517
175660,496,508,517
175663,505,506,511
175667,503,504,509
175671,503,507,510
175675,509,510,513
175679,514,510,514
175683,513,507,511
175687,508,504,507
175691,510,507,513
175695,508,511,513
175699,509,512,513
175704,506,509,512
175708,507,508,510
175712,509,507,513
175716,506,507,512
175719,505,506,510
175723,504,503,511
175727,508,506,515
175731,508,509,514
175735,507,511,514
175739,504,510,518
175744,505,504,516
175748,502,500,514
175752,502,506,512
175756,502,512,509
175760,501,512,513
175764,499,510,518
175768,502,506,518
175772,498,508,520
175775,508,513,519
175779,508,512,517
175783,507,510,518
175788,496,509,519
175792,512,512,518
175796,511,514,518
175800,515,510,516
175804,510,510,515
175808,518,516,510
175812,518,513,514
175816,517,510,519
175820,510,506,517
175824,503,505,520
175828,501,507,522
175832,511,508,517
175836,505,510,515
175840,505,512,512
175844,517,511,513
175848,515,510,521
175852,515,512,520
175856,519,512,520
175860,515,509,521
175864,520,508,521
175868,507,509,518
175873,508,513,518
175877,508,509,513
175881,504,509,511
175885,510,511,512
175888,510,514,514
175892,507,515,518
175896,511,511,519
175900,510,508,514
175904,512,508,510
175908,514,512,512
175912,514,512,514
175917,506,510,514
175921,507,510,514
175925,512,509,511
175929,512,510,510
175933,514,510,509
175937,510,508,511
175941,510,510,515
175944,503,512,516
175948,505,514,515
175952,512,512,514
175956,502,508,514
175961,494,507,514
175965,498,508,512
175969,501,511,511
175973,495,512,512
175977,505,505,511
175981,498,505,512
175985,500,510,516
175989,503,512,514
175993,499,511,512
175997,506,511,512
176001,506,512,511
176005,507,513,512
176009,508,515,513
176013,501,511,511
176017,507,511,513
176021,507,515,511
176025,499,514,510
176029,497,511,513
176033,502,512,513
176037,502,512,511
176041,506,514,510
176046,504,517,509
176050,507,515,509
176054,507,512,510
176057,510,513,510
176061,512,517,509
176065,513,521,509
176069,491,516,506
176073,509,510,504
176077,507,509,506
176081,512,511,508
176086,511,516,508
176090,513,511,507
176094,518,506,508
176098,509,507,509
176102,517,512,509
176106,511,512,511
176110,504,508,512
176113,496,506,512
176117,506,513,509
176121,513,519,506
176125,516,514,514
176130,506,508,515
176134,502,505,513
176138,506,510,515
176142,511,512,514
176146,511,512,513
176150,507,509,511
176154,499,512,510
176158,503,517,510
176162,518,515,513
176166,515,510,511
176169,511,507,507
176174,518,509,505
176178,515,516,510
176182,512,516,509
176186,510,509,510
176190,517,506,511
176194,514,509,512
176198,506,515,511
176202,507,517,513
176206,506,514,513
176210,519,513,511
176215,514,515,511
176219,505,516,510
176223,494,518,510
176226,502,517,511
176230,506,511,513
176234,507,509,510
176238,506,511,510
176242,515,513,513
176246,502,510,513
176250,495,508,512
176254,502,508,511
176259,508,509,511
176263,507,507,510
176267,505,507,509
176271,505,509,510
176275,516,513,510
176279,514,517,513
176282,503,516,517
176286,500,512,518
176290,505,513,516
176294,504,519,514
176299,498,519,511
176303,502,518,513
176307,495,516,515
176311,496,517,517
176315,504,519,516
176319,496,515,511
176323,497,512,513
176327,505,511,511
176331,503,515,510
176335,507,515,510
176338,506,512,513
176343,501,509,510
176347,498,513,510
176351,504,518,510
176355,503,516,509
176359,510,512,512
176363,503,513,512
176367,499,514,511
176371,511,519,513
176375,505,515,512
176379,501,509,513
176384,503,507,513
176388,506,509,512
176392,509,510,515
176395,509,510,515
176399,507,507,514
176403,501,507,514
176407,502,509,513
176411,506,512,511
176415,510,514,512
176419,502,511,511
176423,506,508,509
176428,506,509,511
176432,500,513,511
176436,509,514,509
176440,507,513,508
176444,516,511,507
176448,515,514,507
176451,509,515,509
176454,508,512,508
176458,501,505,504
176462,501,502,505
176466,505,505,506
176471,506,507,506
176475,503,508,504
176479,505,508,505
176483,507,510,507
176487,510,511,509
176491,506,511,509
176495,504,509,512
176499,510,506,510
176503,512,507,508
176507,512,511,508
176510,507,511,508
176515,509,509,508
176519,507,506,513
176523,505,508,515
176527,497,509,515
176531,504,508,512
176535,503,506,509
176539,506,503,512
176543,503,507,514
176547,508,513,510
176551,508,510,509
176556,510,506,513
176560,504,507,513
176564,501,509,512
176567,500,511,513
176571,502,508,511
176575,496,505,512
176579,503,506,511
176583,507,509,508
176587,507,510,508
176591,500,509,509
176595,502,512,511
176600,509,512,513
176604,508,512,511
176608,496,511,508
176612,491,507,510
176616,496,509,514
176620,501,510,515
176623,506,509,512
176627,510,506,511
176631,505,505,510
176635,505,507,508
176640,494,511,511
176644,496,513,514
176648,502,511,510
176652,501,508,509
176656,502,508,509
176660,508,508,509
176664,507,509,509
176668,503,509,510
176672,499,512,516
176676,501,514,519
176679,503,514,519
176684,504,514,517
176688,510,511,518
176692,509,508,514
176696,508,509,514
176700,512,511,513
176704,508,511,512
176708,507,511,511
176712,505,510,513
176716,509,510,512
176720,504,515,514
176724,501,515,513
176729,508,509,512
176733,510,507,509
176736,510,509,508
176740,509,515,507
176744,507,515,506
176748,499,513,511
176752,510,510,511
176756,509,509,511
176760,508,510,512
176764,504,509,512
176769,502,510,513
176773,501,511,511
176777,507,513,512
176781,509,513,511
176785,509,511,512
176789,504,510,515
176792,500,511,515
176796,498,511,510
176800,504,511,512
176804,506,514,512
176808,504,516,512
176813,510,512,511
176817,505,512,511
176821,501,513,511
176825,501,508,511
176829,504,504,512
176833,505,505,512
176837,504,507,511
176841,504,506,513
176845,502,506,514
176848,503,507,513
176852,508,510,512
176857,508,512,511
176861,505,509,511
176865,501,507,512
176869,500,506,508
176873,509,509,505
176877,508,508,505
176881,504,506,508
176885,501,504,507
176889,511,503,508
176893,511,504,510
176898,511,505,507
176902,510,503,509
176905,518,504,509
176909,515,502,509
176913,512,504,508
176917,507,505,512
176921,512,502,511
176925,508,499,510
176929,511,502,509
176933,515,506,508
176937,508,506,509
176942,514,508,511
176946,519,513,511
176950,504,515,510
176954,504,515,509
176958,508,513,510
176961,502,512,512
176965,509,514,512
176969,510,513,510
176973,505,511,507
176977,504,511,506
176982,504,510,509
176986,503,509,509
176990,506,511,508
176994,509,513,511
176998,508,511,509
177002,506,507,509
177006,512,510,511
177010,506,512,512
177014,496,511,512
177017,504,508,510
177021,503,506,510
177026,510,511,512
177030,507,513,512
177034,508,507,508
177038,501,507,508
177042,499,509,510
177046,502,510,510
177050,506,512,509
177054,506,509,509
177058,501,505,508
177062,502,507,505
177067,504,513,509
177071,502,514,514
177074,499,512,516
177078,499,509,514
177082,504,507,512
177086,502,507,510
177090,501,506,508
177094,505,505,507
177098,506,503,506
177102,501,505,506
177106,507,509,508
177111,505,512,508
177115,502,512,508
177119,509,510,511
177123,509,505,508
177127,502,504,506
177130,502,506,503
177134,504,508,506
177138,503,512,506
177142,506,512,506
177146,505,511,505
177150,506,508,504
177155,503,511,507
177159,500,513,508
177163,504,509,509
177167,503,506,508
177171,504,504,508
177175,501,509,509
177179,508,510,509
177183,500,510,508
177186,500,511,506
177190,502,506,510
177195,497,508,512
177199,506,512,512
177203,506,511,513
177207,507,510,510
177211,507,508,511
177215,503,508,509
177219,505,509,509
177223,503,513,512
177227,499,516,509
177231,498,513,506
177235,500,513,505
177240,508,515,507
177243,511,514,506
177247,506,510,505
177251,502,506,502
177255,508,509,503
177259,512,515,505
177263,510,518,510
177267,509,513,511
177271,504,508,511
177275,507,509,509
177280,507,512,510
177284,510,510,508
177288,506,509,506
177292,509,510,510
177296,505,516,511
177299,510,516,508
177303,509,516,507
177307,506,512,510
177311,513,510,511
177315,514,511,507
177319,514,510,505
177324,507,508,505
177328,504,507,505
177332,506,514,507
177336,516,519,505
177340,514,519,509
177344,505,514,510
177348,505,510,509
177352,504,511,506
177355,508,515,506
177359,507,516,508
177363,510,512,508
177368,511,508,510
177372,509,507,509
177376,507,512,507
177380,505,510,507
177384,506,505,506
177388,511,504,507
177392,511,509,508
177396,506,513,508
177400,504,513,509
177404,505,509,511
177409,508,508,513
177412,509,511,513
177416,503,510,512
177420,506,510,511
177424,505,508,509
177428,508,511,508
177432,513,513,510
177436,506,509,509
177440,501,504,510
177444,503,502,511
177448,503,505,510
177453,506,509,506
177457,500,512,505
177461,504,510,506
177465,504,508,512
177468,506,508,511
177471,508,513,510
177475,504,511,509
177479,501,508,511
177483,503,509,513
177487,512,511,512
177491,509,512,509
177496,509,510,508
177500,498,510,509
177504,503,513,509
177508,504,513,512
177512,505,508,509
177516,500,504,508
177520,499,505,507
177523,503,510,508
177526,506,513,509
177530,510,508,510
177534,511,506,508
177539,506,504,506
177543,500,509,506
177547,502,512,511
177551,513,507,508
177555,505,501,505
177559,505,499,506
177563,504,502,508
177567,511,508,506
177571,513,509,506
177575,509,506,505
177579,506,505,506
177582,503,510,507
177586,508,511,508
177590,518,510,509
177594,508,507,511
177598,510,508,512
177602,503,511,509
177606,507,513,507
177610,513,511,504
177614,504,511,504
177618,505,513,503
177623,504,513,498
177627,508,513,504
177631,513,509,504
177634,513,504,505
177637,516,505,504
177641,505,507,504
177645,514,509,504
177649,525,507,501
177653,506,509,498
177657,500,513,503
177661,512,513,509
177666,513,506,511
177670,508,501,509
177674,511,502,505
177678,504,504,496
177682,508,506,504
177686,509,507,512
177689,507,506,512
177692,505,506,511
177696,508,510,512
177700,511,511,510
177704,507,509,504
177709,510,509,502
177713,508,512,509
177717,511,515,512
177721,516,516,510
177725,502,511,510
177729,503,511,510
177733,499,513,515
177737,507,515,513
177741,506,514,510
177744,512,510,511
177747,507,511,511
177752,515,514,507
177756,508,512,507
177760,511,508,508
177764,514,504,514
177768,510,506,517
177772,507,510,514
177776,511,510,511
177780,506,507,511
177784,507,504,510
177788,506,504,507
177793,504,510,505
177797,515,513,504
177801,516,509,503
177804,499,506,506
177808,500,508,507
177812,511,512,507
177816,509,512,505
177820,505,509,504
177824,503,506,505
177828,507,506,507
177832,510,509,504
177837,516,508,503
177841,508,508,508
177845,506,508,512
177849,507,508,511
177853,508,508,511
177857,509,504,511
177860,505,506,512
177864,516,512,509
177868,510,515,505
177872,509,511,503
177876,507,508,500
177881,505,505,502
177885,503,505,503
177889,508,506,504
177893,507,506,504
177897,509,502,503
177901,512,505,506
177905,509,507,506
177909,503,508,510
177913,507,507,512
177916,508,502,508
177921,508,500,507
177925,513,503,508
177929,510,511,506
177933,509,513,507
177937,505,509,509
177941,509,508,507
177945,513,511,509
177949,501,513,508
177953,510,513,509
177957,510,509,507
177961,508,507,506
177966,510,508,508
177970,510,513,509
177973,510,511,508
177977,511,511,511
177981,507,510,511
177985,510,512,509
177989,511,513,507
177993,513,509,507
177997,514,508,510
178001,518,510,513
178006,512,512,513
178010,509,510,509
178014,509,507,508
178018,514,506,507
178022,508,508,505
178026,509,513,509
178029,511,510,510
178033,507,505,511
178037,510,504,511
178041,512,508,510
178045,515,507,512
178050,518,505,510
178054,508,500,509
178058,505,501,511
178062,511,509,510
178066,513,516,510
178070,512,512,511
178074,512,506,511
178078,507,504,514
178082,509,506,513
178085,514,509,510
178089,512,509,506
178094,512,505,505
178098,507,506,506
178102,514,511,506
178106,516,509,506
178110,515,504,504
178114,511,505,506
178118,506,509,508
178122,504,513,508
178126,504,513,508
178130,510,511,510
178135,508,511,512
178139,508,515,513
178142,509,516,512
178146,509,516,511
178150,512,514,510
178154,510,511,509
178158,521,510,511
178162,510,511,509
178166,504,512,510
178170,509,510,508
178174,514,509,509
178179,514,510,507
178183,511,513,506
178187,509,509,503
178191,511,508,507
178195,512,511,506
178198,506,512,507
178202,504,511,509
178206,511,507,508
178210,511,509,509
178214,523,513,508
178219,515,512,509
178223,506,509,511
178227,508,506,510
178231,504,506,509
178235,512,508,510
178239,512,509,508
178243,518,507,508
178247,517,505,512
178251,512,503,511
178254,507,507,509
178258,509,511,508
178263,508,507,504
178267,517,504,507
178271,512,506,507
178275,509,509,506
178279,512,511,505
178283,505,508,507
178287,509,507,512
178291,524,510,510
178295,513,510,509
178299,503,507,508
178304,505,505,508
178308,508,507,510
178311,510,506,509
178315,509,505,512
178319,508,508,514
178323,514,507,515
178327,511,507,513
178331,509,507,511
178335,502,508,512
178339,507,505,511
178343,512,504,511
178348,506,506,513
178352,512,508,512
178356,521,507,513
178360,516,506,514
178364,503,505,514
178367,505,507,510
178371,509,513,506
178375,506,514,505
178379,505,509,508
178383,507,510,510
178387,515,508,508
178392,515,511,509
178396,511,510,507
178400,504,504,507
178404,507,504,508
178408,508,506,509
178412,515,509,509
178416,514,508,506
178420,501,507,505
178423,505,507,506
178427,516,508,508
178432,513,512,510
178436,511,509,508
178440,507,509,510
178444,507,510,511
178448,513,509,511
178452,514,508,513
178456,508,507,513
178460,509,507,515
178464,505,506,514
178468,508,508,508
178472,510,509,505
178477,516,508,507
178480,516,509,508
178484,503,508,508
178488,508,508,508
178492,507,508,504
178496,508,506,502
178500,512,507,505
178504,509,509,507
178508,509,514,506
178512,510,512,504
178516,505,508,505
178521,506,506,506
178525,515,511,506
178529,514,512,508
178533,514,510,505
178536,510,505,505
178540,510,503,507
178544,510,507,508
178548,512,509,509
178552,512,506,507
178556,508,505,507
178561,506,507,507
178565,508,515,506
178569,510,516,503
178573,509,511,505
178577,509,507,507
178581,509,509,506
178585,509,510,505
178589,512,507,504
178592,511,507,505
178596,512,508,504
178600,512,511,504
178605,518,511,507
178609,525,506,507
178613,511,504,505
178617,504,508,503
178621,506,513,504
178625,508,514,511
178629,515,513,512
178633,510,509,510
178637,512,507,510
178641,509,509,510
178646,505,510,508
178649,509,508,506
178653,512,510,504
178657,509,512,504
178661,514,510,508
178665,510,510,512
178669,509,506,510
178673,509,505,507
178677,507,508,504
178681,512,511,503
178685,510,510,500
178690,508,510,503
178694,507,511,506
178698,503,511,507
178702,510,513,505
178705,511,514,507
178709,507,507,510
178713,506,501,511
178717,507,505,507
178721,512,507,508
178725,509,505,507
178729,510,506,504
178734,513,508,507
178738,518,513,508
178742,518,513,508
178746,513,507,506
178750,514,503,508
178754,512,508,512
178758,511,514,510
178761,508,523,505
178765,510,509,502
178769,505,502,508
178774,507,510,508
178778,516,512,504
178782,517,506,504
178786,512,502,509
178790,509,500,507
178794,516,502,505
178798,514,503,505
178802,509,505,506
178806,509,504,510
178810,505,503,511
178814,506,504,508
178818,502,507,507
178822,513,506,506
178826,521,505,508
178830,509,507,506
178834,512,510,507
178838,522,508,507
178842,514,504,507
178846,502,506,505
178850,503,506,505
178854,512,508,507
178859,510,505,506
178863,510,503,509
178867,514,503,509
178871,509,505,508
178874,514,509,508
178878,515,512,509
178882,510,508,509
178886,505,508,511
178890,506,503,509
178894,510,505,506
178898,514,508,507
178903,515,505,509
178907,515,502,511
178911,507,503,509
178915,506,508,508
178919,503,508,509
178923,507,505,508
178927,510,504,506
178930,515,506,509
178934,517,506,512
178938,513,501,515
178942,511,500,514
178947,510,504,513
178951,511,507,510
178955,509,505,508
178959,512,505,505
178963,509,505,506
178967,510,505,509
178971,503,508,504
178975,507,511,505
178979,512,509,507
178983,512,508,508
178987,508,507,507
178991,505,509,504
178995,510,510,505
178999,507,508,503
179003,505,509,500
179007,512,513,501
179011,515,515,503
179015,508,515,507
179019,501,513,508
179023,510,512,508
179027,510,516,507
179032,509,517,501
179036,514,513,503
179039,507,510,509
179042,506,510,509
179046,506,515,509
179050,509,516,510
179054,518,512,510
179058,514,511,509
179062,509,512,508
179066,509,511,508
179070,508,509,507
179075,501,507,505
179079,510,507,507
179083,514,511,511
179087,516,514,507
179091,509,510,504
179094,508,506,508
179097,500,508,509
179101,514,510,510
179105,512,512,507
179109,514,509,504
179113,507,508,508
179118,509,510,508
179122,514,512,510
179126,515,513,512
179130,504,507,513
179134,506,502,508
179138,509,506,505
179142,511,509,505
179146,509,506,505
179149,506,502,505
179152,505,504,505
179156,507,508,504
179161,519,509,505
179165,509,508,510
179169,498,507,511
179173,513,508,514
179177,511,510,511
179181,505,513,508
179185,504,511,508
179189,503,505,506
179193,504,504,510
179197,510,504,510
179202,512,507,509
179205,509,506,507
179208,509,504,506
179212,507,506,503
179216,511,509,501
179220,513,511,500
179224,513,509,505
179228,508,502,509
179232,511,505,507
179236,509,508,505
179240,512,506,504
179245,513,502,504
179249,503,505,510
179253,507,506,509
179257,506,510,508
179261,506,512,508
179264,506,510,509
179268,511,507,508
179272,509,509,507
179276,509,512,507
179280,516,511,504
179284,518,508,508
179289,508,508,513
179293,505,510,508
179297,508,512,509
179301,509,512,508
179305,513,510,508
179309,511,507,508
179313,512,504,506
179317,510,503,505
179320,504,504,505
179324,509,507,504
179329,505,513,510
179333,506,514,509
179337,506,513,508
179341,514,511,506
179345,512,514,508
179349,510,512,510
179353,506,513,511
179357,506,510,507
179361,510,509,510
179365,512,509,515
179369,507,507,514
179374,517,507,511
179377,509,508,509
179381,506,507,508
179385,507,506,508
179389,509,506,509
179393,515,505,510
179397,507,502,509
179401,502,502,511
179405,510,509,511
179409,512,511,512
179414,513,513,511
179418,513,512,505
179422,505,505,509
179426,504,504,511
179430,507,510,512
179433,509,511,511
179437,505,509,510
179441,505,511,511
179445,515,513,514
179449,514,510,514
179453,504,506,513
179458,507,505,508
179462,503,505,507
179466,511,509,507
179470,513,511,510
179474,511,512,513
179478,511,513,510
179482,509,515,512
179486,523,517,511
179489,508,516,510
179493,502,513,511
179497,504,510,511
179502,510,509,511
179506,508,511,509
179510,510,512,507
179514,507,508,507
179518,509,503,510
179522,514,507,512
179526,514,512,510
179530,509,515,512
179534,503,515,513
179538,505,516,509
179543,507,517,506
179546,512,513,507
179550,510,512,506
179554,511,510,511
179558,509,508,509
179562,509,507,510
179566,508,509,511
179570,505,512,507
179574,505,514,505
179578,508,510,510
179582,508,509,510
179587,510,509,509
179591,512,506,509
179595,508,504,508
179599,507,507,505
179602,508,513,504
179606,510,513,506
179610,513,510,509
179614,508,506,510
179618,508,505,508
179622,503,507,507
179627,505,511,508
179631,510,511,509
179635,508,509,507
179639,507,512,506
179643,509,515,510
179647,510,512,507
179651,507,509,510
179655,518,509,515
179658,517,509,511
179662,511,507,512
179666,509,506,514
179671,509,506,513
179675,511,507,509
179679,511,514,513
179683,512,514,510
179687,517,510,502
179691,511,506,507
179695,507,505,508
179699,517,509,507
179703,516,513,506
179707,507,511,502
179712,504,510,506
179715,509,510,510
179719,511,509,512
179723,512,507,512
179727,502,503,507
179731,508,504,497
179735,507,510,504
179739,510,512,511
179743,508,512,515
179747,503,511,513
179751,511,508,511
179756,516,510,506
179760,506,510,495
179764,505,504,485
179768,511,506,495
179771,510,505,506
179775,509,514,507
179779,511,523,502
179783,500,507,494
179787,506,503,507
179791,508,500,507
179795,505,506,505
179800,507,522,526
179804,507,517,520
179808,502,509,508
179812,505,511,512
179816,514,510,508
179820,504,507,502
179824,496,506,496
179827,496,511,508
179830,501,514,509
179834,507,516,506
179838,509,522,506
179843,504,507,488
179847,503,498,486
179851,514,504,498
179855,515,506,508
179859,511,506,515
179863,514,512,519
179867,508,507,502
179871,508,507,504
179875,510,507,509
179879,509,507,509
179884,510,503,506
179887,506,501,500
179891,505,506,509
179895,506,516,514
179899,503,516,510
179903,502,514,512
179907,507,511,514
179911,511,510,512
179915,504,505,507
179919,506,500,503
179923,509,503,505
179928,508,511,513
179932,506,513,513
179936,507,505,507
179940,507,499,501
179943,517,498,491
179947,518,511,492
179951,507,509,503
179955,501,514,509
179959,504,521,516
179963,506,524,517
179968,508,514,512
179972,508,506,520
179976,508,500,515
179980,509,494,504
179984,511,496,495
179988,509,515,503
179992,508,511,507
179996,505,509,504
179999,509,521,513
180003,513,511,512
180007,516,500,510
180012,521,491,505
180016,512,516,512
180020,508,522,536
180024,510,518,538
180028,502,510,528
180032,507,508,512
180036,509,519,492
180040,506,510,518
180044,505,495,505
180048,512,495,499
180052,525,504,530
180056,507,510,550
180060,506,515,544
180064,524,524,544
180068,520,527,530
180072,510,523,525
180076,504,519,530
180080,503,514,534
180084,519,497,520
180088,522,492,501
180092,515,502,516
180097,514,508,527
180101,503,513,532
180105,518,515,536
180109,519,502,522
180112,510,496,523
180116,517,507,535
180120,518,527,543
180124,533,506,528
180128,516,495,520
180132,507,513,543
180136,505,510,519
180141,535,510,524
180145,514,509,545
180149,528,506,546
180153,511,538,559
180157,508,533,544
180161,516,505,514
180165,526,484,508
180168,510,490,506
180172,517,500,526
180176,514,504,545
180180,523,522,539
180185,518,532,538
180189,510,539,538
180193,512,527,535
180197,522,512,553
180201,525,523,553
180205,503,505,517
180209,510,487,501
180213,514,486,526
180217,519,524,529
180221,496,506,494
180225,513,504,504
180229,522,481,504
180233,499,481,524
180237,498,488,501
180241,520,516,517
180245,522,542,563
180249,518,531,551
180253,501,520,519
180257,520,512,483
180261,541,528,497
180265,529,511,502
180270,507,492,524
180274,499,527,581
180278,504,503,554
180281,512,494,548
180285,531,526,540
180289,510,499,464
180293,508,505,445
180297,492,513,466
180301,502,499,479
180305,512,512,519
180310,507,546,577
180314,513,547,567
180318,520,527,525
180322,503,506,467
180326,504,477,432
180330,504,463,437
180334,517,496,487
180337,510,535,498
180341,506,512,529
180345,504,530,558
180349,523,525,572
180354,519,530,576
180358,533,496,484
180362,525,467,454
180366,504,473,459
180370,503,507,510
180374,506,526,540
180378,505,483,495
180382,518,500,492
180386,511,536,541
180390,503,563,554
180393,522,506,471
180398,504,483,458
180402,490,472,456
180406,495,521,461
180410,514,532,465
180414,550,496,480
180418,535,535,579
180422,495,570,625
180426,494,590,560
180430,492,520,502
180434,507,487,467
180439,545,492,491
180443,535,503,503
180447,510,465,476
180450,508,456,489
180454,509,515,522
180458,522,546,542
180462,508,557,547
180466,503,547,526
180470,500,555,563
180474,507,516,514
180478,485,475,480
180483,487,540,479
180487,487,514,427
180491,500,538,484
180495,513,574,552
180499,524,582,542
180503,525,477,447
180506,526,459,437
180510,509,472,454
180514,507,507,486
180518,501,486,477
180523,504,434,444
180527,516,451,472
180531,494,503,564
180535,486,611,600
180539,505,635,548
180543,520,544,489
180547,498,513,459
180551,502,487,476
180555,503,511,509
180559,509,544,521
180562,502,504,486
180566,493,532,515
180570,497,485,491
180574,501,458,469
180578,507,474,429
180582,502,471,434
180586,504,483,466
180590,496,532,562
180594,482,537,586
180598,505,510,539
180602,518,478,490
180606,508,499,472
180611,504,539,486
180615,499,530,484
180619,500,475,459
180622,517,504,516
180626,510,547,579
180630,480,525,485
180634,479,510,471
180638,498,485,490
180642,502,520,491
180646,495,511,486
180651,501,482,475
180655,494,511,492
180659,501,517,521
180663,502,554,545
180667,506,526,511
180671,508,559,558
180674,502,522,575
180677,497,446,435
180681,504,408,390
180685,505,466,475
180689,498,527,579
180694,488,547,537
180698,496,481,448
180702,508,488,431
180706,495,532,441
180710,491,587,507
180714,493,526,518
180718,517,543,514
180722,504,483,518
180726,492,432,497
180730,490,440,504
180733,492,446,483
180738,517,489,491
180742,522,495,494
180746,503,510,520
180750,492,492,507
180754,497,566,513
180758,505,559,540
180762,503,526,520
180766,500,488,508
180770,513,532,578
180774,517,559,558
180779,499,542,468
180783,480,458,421
180787,491,429,413
180790,517,483,452
180794,507,539,490
180798,495,519,522
180802,493,543,557
180806,492,503,493
180810,497,486,469
180814,508,494,482
180818,508,490,497
180823,504,490,518
180827,509,499,531
180831,519,522,515
180835,520,513,493
180839,519,497,478
180843,507,524,518
180846,496,599,645
180850,510,572,571
180854,502,464,443
180858,499,462,446
180862,493,504,466
180867,501,497,458
180871,507,473,469
180875,502,502,495
180879,503,495,509
180883,499,489,502
180887,499,509,513
180891,510,513,502
180895,516,514,500
180899,514,538,549
180902,497,614,584
180907,494,569,535
180911,499,487,480
180915,495,463,477
180919,501,507,543
180923,502,518,500
180927,502,491,473
180931,504,476,489
180935,518,496,473
180939,508,479,462
180943,509,479,483
180947,508,517,516
180952,512,504,519
180956,514,511,523
180959,491,535,560
180963,498,515,515
180967,499,507,507
180971,508,497,497
180975,510,502,501
180979,521,492,493
180983,502,498,507
180987,499,535,529
180992,504,569,499
180996,505,540,528
181000,514,504,547
181004,513,504,513
181008,512,487,475
181012,520,476,471
181015,508,461,484
181019,514,520,536
181023,511,503,497
181027,523,496,484
181031,518,502,518
181036,496,487,521
181040,493,505,497
181044,497,514,503
181048,501,506,494
181052,506,503,518
181056,504,556,565
181060,503,542,557
181064,506,532,517
181068,504,501,473
181071,508,499,468
181075,515,516,466
181080,517,521,497
181084,519,525,515
181088,509,515,530
181092,500,490,499
181096,504,488,496
181100,502,527,503
181104,508,524,524
181108,529,505,534
181112,509,495,513
181116,505,494,493
181121,507,516,526
181125,514,478,485
181128,518,479,472
181132,504,525,482
181136,511,535,489
181140,511,489,514
181144,515,538,581
181148,513,524,543
181152,524,480,510
181156,511,494,507
181160,506,519,499
181165,509,531,499
181169,507,525,510
181173,500,477,482
181177,495,468,492
181181,498,490,493
181184,508,497,484
181188,509,498,487
181192,507,522,503
181196,505,566,534
181200,503,545,529
181204,506,479,475
181209,529,489,478
181213,527,496,491
181217,515,528,534
181221,522,516,480
181225,507,480,465
181229,512,485,508
181233,506,497,538
181237,494,504,527
181240,499,532,530
181244,504,510,532
181249,502,490,499
181253,502,510,521
181257,503,524,544
181261,512,472,483
181265,519,512,489
181269,508,512,493
181273,502,519,504
181277,505,555,556
181281,505,585,610
181285,488,543,533
181289,498,450,456
181294,504,435,455
181297,514,443,454
181301,520,504,476
181305,520,563,501
181309,512,503,492
181313,516,487,517
181317,518,477,512
181321,504,488,516
181325,493,495,521
181329,504,513,523
181334,509,505,502
181338,519,494,492
181342,505,513,500
181346,498,486,493
181350,496,523,518
181353,502,558,549
181357,505,574,509
181361,516,516,494
181365,513,506,508
181369,511,529,541
181373,501,483,502
181378,511,481,490
181382,509,480,485
181386,503,503,496
181390,497,475,495
181394,508,490,497
181398,505,502,487
181402,503,512,496
181406,507,499,497
181409,511,495,499
181413,509,494,509
181417,510,519,538
181422,508,527,541
181426,514,532,520
181430,508,542,541
181434,503,527,538
181438,505,504,492
181442,501,510,477
181446,512,496,488
181450,518,482,478
181454,530,467,518
181458,510,532,513
181463,498,508,508
181466,495,508,514
181470,506,530,557
181474,505,528,540
181478,521,539,537
181482,511,509,502
181486,508,483,485
181490,501,499,521
181494,500,517,531
181498,498,501,495
181502,504,492,486
181507,494,491,481
181511,516,496,488
181515,518,509,512
181519,504,512,520
181522,511,506,493
181526,514,505,506
181530,517,507,519
181534,510,497,512
181538,517,491,506
181542,503,502,526
181547,499,537,537
181551,504,520,505
181555,508,499,499
181559,507,483,497
181563,502,493,508
181567,497,511,514
181571,501,531,504
181575,508,525,491
181578,510,530,517
181582,515,511,511
181586,517,497,496
181591,516,510,518
181595,502,504,517
181599,498,496,503
181603,507,490,488
181607,508,505,490
181611,507,515,511
181615,499,505,510
181619,509,489,508
181623,502,512,499
181627,511,487,499
181632,499,517,539
181635,514,517,510
181639,523,517,506
181643,511,517,502
181647,500,524,506
181651,506,498,487
181655,513,487,488
181659,515,482,490
181663,511,503,498
181667,505,513,499
181671,503,498,512
181676,500,510,521
181680,507,523,517
181684,512,532,533
181688,509,504,533
181691,496,503,533
181695,501,504,509
181699,506,486,484
181703,513,470,464
181707,518,498,502
181711,508,520,523
181715,510,521,529
181720,503,532,530
181724,503,542,539
181728,502,511,503
181732,504,493,485
181736,505,516,497
181740,509,518,501
181744,508,519,516
181747,500,501,517
181751,505,496,496
181755,518,508,495
181760,505,499,497
181764,507,510,532
181768,502,510,522
181772,497,505,488
181776,505,520,496
181780,508,523,517
181784,522,510,514
181788,521,504,494
181792,507,515,513
181796,495,528,522
181800,491,518,516
181804,493,491,497
181808,508,499,502
181812,513,517,509
181816,508,512,515
181820,509,524,528
181824,509,529,513
181828,516,508,517
181832,517,525,523
181836,504,495,494
181840,510,487,482
181844,500,486,499
181849,505,475,503
181853,513,504,524
181857,501,515,525
181860,503,500,505
181864,505,500,503
181868,496,511,509
181872,505,549,542
181876,505,545,524
181880,507,509,492
181884,497,481,494
181889,493,480,490
181893,495,486,519
181897,512,516,519
181901,523,518,516
181905,505,493,530
181909,498,500,496
181913,498,494,481
181916,508,518,469
181919,505,524,518
181923,504,496,517
181927,511,513,529
181932,507,507,498
181936,508,508,491
181940,503,504,504
181944,504,501,499
181948,508,519,506
181952,510,504,504
181956,497,510,512
181960,495,516,510
181964,501,530,503
181968,511,498,482
181972,506,508,500
181977,503,521,504
181981,504,509,526
181985,503,515,521
181989,494,496,500
181993,504,492,514
181997,505,531,511
182001,513,541,508
182005,509,504,514
182009,509,486,502
182013,511,493,501
182018,502,468,493
182022,498,495,491
182026,495,488,502
182029,496,511,534
182032,510,526,531
182036,515,516,512
182040,516,527,522
182044,505,513,539
182048,503,501,539
182052,489,506,524
182056,499,518,524
182061,515,510,514
182065,515,504,496
182069,504,506,507
182073,502,526,499
182077,498,512,489
182081,510,542,511
182084,508,508,493
182087,515,500,501
182091,509,531,503
182095,501,500,503
182099,508,514,526
182104,507,526,528
182108,509,499,482
182112,503,486,470
182116,507,499,506
182120,505,521,520
182124,517,525,518
182128,503,518,510
182132,500,526,518
182136,498,500,512
182140,508,512,521
182144,513,529,511
182148,503,517,506
182152,498,503,507
182156,493,485,498
182160,500,505,514
182164,508,535,541
182168,504,532,524
182172,505,538,505
182176,513,519,508
182180,525,513,503
182184,514,512,491
182189,507,500,490
182193,510,491,493
182197,506,506,517
182200,499,544,549
182204,501,515,497
182208,510,516,484
182212,505,513,491
182216,502,499,490
182220,497,502,530
182224,503,521,550
182228,506,503,515
182233,505,490,498
182237,510,496,497
182241,494,506,508
182245,509,528,537
182249,511,516,533
182253,516,506,500
182256,514,502,499
182260,509,516,505
182264,504,507,493
182268,507,505,510
182273,508,513,526
182277,512,498,502
182281,502,508,511
182285,513,522,498
182289,510,502,479
182293,506,497,497
182297,506,495,503
182301,512,515,509
182305,516,535,517
182309,504,518,519
182312,496,512,515
182317,516,524,510
182321,521,505,510
182325,499,486,509
182329,498,489,505
182333,507,511,509
182337,503,501,506
182341,520,504,523
182345,505,489,494
182349,494,514,502
182353,506,525,514
182358,506,517,503
182362,504,533,514
182365,505,529,520
182368,502,505,513
182372,508,522,510
182376,514,498,509
182380,511,523,515
182384,500,514,507
182388,505,499,522
182392,506,510,517
182396,520,479,500
182401,510,479,502
182405,509,507,509
182409,506,500,517
182413,506,482,505
182417,505,517,529
182421,501,532,536
182424,501,512,510
182428,504,514,510
182432,510,514,509
182436,501,509,500
182440,515,506,503
182445,503,513,508
182449,499,514,501
182453,511,521,526
182457,507,514,521
182461,505,520,502
182465,506,513,498
182469,499,521,527
182473,496,521,540
182477,503,511,496
182480,508,519,493
182484,505,522,506
182489,495,488,501
182493,513,488,496
182497,518,514,506
182501,504,518,515
182505,496,537,519
182509,500,524,523
182513,509,508,535
182517,518,513,533
182521,509,503,518
182525,504,491,491
182530,500,504,497
182534,498,533,518
182537,496,515,519
182541,506,511,519
182545,508,499,505
182549,510,509,489
182553,510,507,484
182557,512,517,512
182561,506,510,515
182565,499,516,518
182569,506,497,511
182574,503,494,505
182578,508,506,505
182582,513,506,512
182586,503,499,499
182590,495,497,499
182593,497,532,513
182597,503,530,511
182601,504,518,505
182605,512,509,504
182609,516,500,494
182614,505,509,491
182618,493,525,533
182622,496,512,534
182626,508,485,500
182630,508,508,496
182634,517,489,486
182638,506,514,507
182642,498,523,505
182646,516,507,492
182649,508,511,520
182653,509,521,516
182658,504,497,511
182662,504,506,514
182666,503,522,512
182670,494,509,493
182674,492,489,481
182678,499,504,497
182682,511,534,526
182686,512,535,518
182690,503,508,494
182694,497,476,479
182699,497,481,500
182703,500,508,519
182706,512,529,514
182710,505,527,513
182714,510,507,504
182718,515,495,501
182722,515,496,499
182726,514,519,504
182730,504,513,480
182734,508,482,487
182738,503,506,534
182743,506,550,551
182747,496,532,520
182751,498,538,512
182755,501,498,496
182759,507,472,491
182762,514,498,513
182766,506,557,545
182770,502,562,511
182774,506,477,486
182778,498,500,488
182782,507,485,500
182787,512,506,527
182791,504,535,549
182795,514,520,530
182799,519,511,503
182803,510,477,469
182807,496,496,471
182811,496,517,471
182815,496,492,490
182818,501,514,512
182822,512,501,508
182827,512,479,497
182831,505,516,528
182835,507,518,528
182839,513,510,513
182843,502,516,514
182847,498,527,517
182851,503,523,516
182855,511,535,533
182859,518,554,531
182863,511,552,516
182867,510,531,504
182872,508,499,498
182875,503,474,481
182879,511,489,498
182883,507,506,512
182887,510,513,541
182891,518,507,512
182895,504,508,497
182899,510,481,486
182903,506,502,500
182907,493,508,526
182912,509,515,524
182916,506,519,518
182920,506,519,514
182924,504,506,507
182928,506,515,508
182931,511,505,504
182935,512,499,496
182939,514,524,501
182943,519,533,520
182947,507,522,524
182951,506,519,545
182956,506,502,515
182960,508,491,499
182964,499,514,540
182968,505,488,507
182972,504,483,497
182976,506,491,509
182980,510,495,492
182984,502,521,515
182987,499,550,543
182991,504,535,517
182995,511,506,500
183000,507,487,491
183004,510,484,493
183008,512,500,499
183012,507,499,516
183016,508,518,547
183020,501,532,527
183024,506,517,513
183028,502,491,505
183032,508,501,504
183036,509,529,513
183041,515,533,525
183044,505,516,501
183048,505,486,505
183052,501,488,529
183056,503,525,540
183060,502,518,517
183064,514,493,499
183068,504,481,492
183072,515,505,500
183076,513,518,509
183080,497,524,498
183085,494,491,511
183089,505,535,540
183093,516,533,520
183097,503,505,498
183100,497,514,520
183104,509,487,497
183108,515,498,493
183112,511,506,495
183116,506,536,507
183120,499,510,500
183124,501,477,508
183129,506,512,524
183133,502,506,484
183137,501,538,533
183141,519,538,525
183145,519,489,495
183149,510,484,501
183153,502,471,502
183156,509,501,510
183160,508,506,507
183164,510,507,498
183169,504,528,512
183173,509,513,518
183177,519,548,537
183181,514,558,510
183185,512,488,509
183189,513,464,495
183193,509,461,488
183197,500,473,500
183201,503,502,511
183205,508,523,519
183209,509,522,519
183213,505,509,501
183217,506,504,493
183221,509,510,488
183225,506,514,515
183229,504,517,541
183233,500,547,545
183237,503,543,526
183241,512,517,497
183245,512,509,507
183249,509,518,505
183254,505,485,491
183258,505,518,534
183262,509,532,513
183266,509,517,503
183269,512,491,500
183273,504,489,505
183277,509,482,496
183281,515,501,518
183285,521,531,542
183289,505,507,507
183293,502,486,478
183298,505,490,496
183302,509,501,508
183306,513,507,505
183310,498,496,497
183314,493,503,508
183318,511,547,519
183322,512,514,516
183325,506,489,509
183329,500,506,520
183333,500,524,545
183337,506,512,519
183342,506,511,501
183346,511,490,486
183350,515,483,480
183354,511,475,495
183358,510,518,522
183362,505,518,523
183366,515,504,530
183370,514,504,505
183374,511,497,476
183378,511,500,493
183382,508,514,498
183386,507,497,486
183390,503,521,540
183394,508,510,523
183398,501,478,480
183402,506,490,493
183406,501,507,498
183410,504,530,510
183414,506,514,510
183418,511,489,504
183422,506,507,506
183427,510,514,512
183431,502,515,511
183435,495,494,493
183438,517,503,506
183442,515,551,552
183446,493,532,532
183450,499,486,478
183454,514,519,506
183458,513,513,505
183462,511,494,496
183467,508,499,522
183471,504,525,533
183475,502,518,505
183479,506,522,524
183483,505,494,489
183487,511,489,477
183491,519,501,477
183494,514,513,493
183498,514,501,493
183502,503,491,502
183506,505,525,539
183511,517,517,531
183515,515,490,510
183519,498,504,508
183523,499,515,512
183527,511,508,508
183531,511,503,523
183535,499,511,512
183539,495,512,509
183543,514,506,520
183547,510,538,549
183550,503,546,553
183555,507,528,513
183559,513,476,460
183563,497,484,464
183567,511,501,521
183571,534,509,537
183575,506,521,537
183579,494,502,506
183583,504,500,497
183587,508,532,515
183591,510,552,533
183596,509,491,501
183600,505,476,495
183604,499,482,498
183607,501,514,494
183611,505,516,516
183615,511,527,526
183619,510,524,537
183623,503,525,547
183627,494,527,518
183631,513,507,507
183635,518,517,538
183640,508,503,536
183644,511,506,502
183648,506,502,473
183652,503,519,469
183656,503,538,502
183660,503,511,504
183664,505,514,535
183668,505,526,531
183672,507,508,507
183676,518,496,496
183681,516,488,488
183685,513,500,471
183689,511,486,480
183693,504,497,509
183697,501,498,504
183701,502,500,504
183705,499,517,527
183709,503,512,523
183713,501,517,534
183716,506,514,528
183720,506,559,544
183725,511,565,550
183729,508,509,510
183733,512,474,473
183737,499,470,476
183741,514,458,474
183745,503,484,493
183749,516,504,503
183753,514,505,514
183757,508,519,531
183761,504,529,524
183766,501,512,516
183770,514,497,491
183773,506,505,501
183777,502,519,526
183781,506,525,532
183785,508,536,511
183789,510,517,494
183793,511,506,507
183797,507,505,522
183801,502,521,526
183805,507,498,492
183810,505,517,494
183814,511,502,491
183818,515,511,524
183822,509,524,528
183826,493,505,505
183829,501,496,510
183833,503,498,504
183837,507,501,508
183841,515,499,506
183845,496,518,518
183849,503,516,509
183854,510,508,507
183858,509,526,520
183862,514,507,497
183866,524,521,514
183870,509,518,521
183874,498,519,496
183878,504,518,513
183882,508,510,516
183885,507,516,530
183889,504,499,519
183894,505,498,512
183898,513,523,530
183902,513,523,510
183906,513,498,490
183910,506,491,498
183914,503,506,513
183918,505,515,494
183922,503,507,485
183926,504,504,509
183930,502,520,522
183934,497,510,522
183939,502,515,518
183942,513,488,499
183946,515,505,521
183950,509,503,518
183954,506,498,511
183958,507,513,512
183962,504,512,515
183966,504,500,507
183970,522,510,515
183974,526,519,522
183979,535,537,532
183983,511,515,508
183987,498,484,493
183991,498,484,489
183995,506,522,527
183998,505,520,534
184002,505,504,483
184006,506,511,491
184010,506,509,510
184014,512,508,498
184018,508,502,511
184023,506,517,534
184027,510,511,529
184031,501,492,496
184035,508,482,497
184039,505,500,504
184043,497,503,503
184047,506,518,528
184051,514,519,524
184054,518,516,500
184058,501,513,491
184062,503,513,514
184067,511,511,505
184071,504,494,485
184075,496,506,502
184079,499,515,515
184083,509,500,496
184087,505,487,482
184091,513,506,508
184095,517,513,525
184099,519,500,516
184103,510,499,505
184108,506,502,498
184111,516,518,525
184115,508,527,539
184119,503,523,538
184123,507,510,505
184127,514,497,493
184131,514,489,496
184135,511,528,549
184139,509,523,525
184143,495,501,486
184147,499,505,491
184152,505,506,500
184156,511,503,497
184160,502,503,506
184164,497,515,508
184167,498,516,506
184171,502,522,516
184175,509,524,504
184179,506,517,511
184183,514,508,502
184187,514,494,521
184192,512,518,519
184196,509,510,500
184200,526,496,486
184204,517,512,508
184208,512,516,520
184212,499,508,514
184216,506,499,510
184220,504,502,513
184223,514,507,503
184227,507,517,502
184231,509,540,525
184236,499,523,528
184240,501,492,498
184244,505,490,480
184248,503,503,495
184252,503,525,520
184256,505,519,521
184260,507,497,504
184264,526,501,501
184268,522,505,502
184272,509,509,508
184276,503,507,506
184280,500,491,500
184284,497,512,509
184288,517,540,533
184292,509,540,527
184296,503,520,509
184300,503,516,514
184304,510,515,484
184308,513,487,476
184312,506,498,488
184316,503,505,500
184321,505,507,492
184325,513,528,498
184329,512,528,512
184333,520,517,499
184336,512,524,523
184340,507,514,535
184344,506,490,498
184348,508,508,495
184352,516,530,530
184356,503,498,502
184360,503,500,495
184365,515,516,504
184369,511,525,513
184373,512,521,513
184377,506,517,500
184381,508,507,503
184385,506,517,506
184389,514,505,509
184392,504,498,499
184396,503,529,513
184400,509,540,524
184404,518,502,502
184409,519,485,502
184413,496,482,494
184417,497,496,519
184421,514,523,522
184425,508,498,496
184429,509,490,480
184433,510,522,506
184437,510,503,515
184441,512,507,513
184445,514,522,520
184449,506,512,508
184452,508,496,506
184456,507,493,502
184460,507,518,518
184464,506,523,509
184468,519,507,515
184472,521,511,521
184476,504,499,497
184480,503,485,498
184484,508,490,497
184488,500,531,512
184493,513,512,525
184497,512,499,508
184501,512,513,501
184505,510,511,500
184508,506,505,523
184512,508,508,535
184516,505,511,524
184520,505,512,499
184524,506,492,495
184528,504,503,511
184532,513,504,498
184537,513,509,501
184541,502,509,526
184545,509,507,512
184549,508,512,498
184553,504,514,507
184557,499,509,528
184561,505,509,505
184564,510,501,504
184568,505,510,506
184572,498,509,516
184577,502,531,534
184581,507,503,509
184585,505,496,490
184589,507,504,500
184593,515,514,516
184597,518,510,492
184601,504,505,506
184605,507,505,516
184609,502,517,499
184613,501,530,511
184617,508,500,506
184621,520,498,510
184625,512,496,504
184629,510,531,549
184633,507,560,546
184637,506,494,492
184641,508,493,511
184645,503,495,505
184649,500,500,498
184653,514,512,499
184657,514,533,531
184662,507,526,527
184666,507,487,492
184670,504,478,488
184674,511,499,502
184677,520,501,500
184681,513,503,505
184685,510,511,525
184689,505,535,534
184693,500,516,506
184697,511,484,489
184701,512,500,498
184706,501,519,516
184710,497,513,511
184714,517,517,514
184718,505,531,522
184722,496,509,516
184726,502,498,510
184730,514,505,493
184733,517,514,500
184737,517,509,514
184741,502,503,518
184745,511,510,519
184750,519,532,513
184754,512,519,497
184758,512,506,507
184762,515,501,503
184766,498,477,490
184770,498,498,502
184774,504,518,524
184778,503,532,530
184782,515,511,508
184786,506,541,505
184790,507,525,506
184794,501,501,500
184798,514,501,510
184802,502,496,507
184806,509,511,507
184810,509,505,495
184814,507,503,495
184818,496,532,514
184822,502,522,516
184826,515,506,506
184830,509,501,505
184835,502,513,512
184839,493,496,499
184843,496,487,502
184846,507,493,506
184850,502,494,502
184854,510,490,499
184858,504,483,507
184862,513,510,532
184866,524,519,510
184870,509,510,501
184875,496,511,500
184879,498,538,506
184883,508,514,510
184887,509,511,522
184891,516,491,515
184895,504,492,500
184899,511,491,508
184902,525,503,509
184906,505,529,533
184910,502,506,512
184914,499,493,489
184919,507,497,492
184923,505,519,516
184927,496,500,515
184931,503,506,521
184935,525,497,509
184939,513,510,506
184943,497,510,501
184947,495,491,484
184951,496,510,519
184955,495,499,508
184958,510,495,503
184963,519,495,511
184967,513,481,494
184971,513,536,530
184975,513,539,532
184979,502,524,510
184983,500,519,499
184987,505,524,520
184991,507,506,518
184995,510,517,518
184999,514,517,519
185004,511,496,501
185008,514,480,480
185012,511,530,510
185015,494,533,513
185019,504,510,509
185023,511,487,505
185027,508,487,506
185031,505,514,516
185035,503,501,506
185039,501,502,507
185043,515,525,510
185048,512,514,515
185052,502,495,516
185056,504,495,516
185060,495,495,509
185064,512,497,500
185068,509,500,509
185071,515,495,507
185075,518,533,513
185079,512,535,525
185083,508,516,523
185088,504,508,509
185092,517,516,518
185096,512,501,501
185100,504,516,505
185104,507,522,511
185108,503,521,505
185112,508,511,511
185116,505,502,512
185120,499,510,503
185124,503,495,496
185127,505,519,526
185132,498,530,542
185136,507,494,503
185140,517,492,491
185144,508,493,488
185148,512,498,509
185152,519,512,507
185156,512,510,492
185160,506,501,484
185164,511,511,509
185168,510,506,509
185172,501,506,520
185177,509,515,518
185181,516,512,501
185184,514,524,504
185188,495,525,494
185192,504,492,505
185196,505,498,515
185200,507,512,513
185204,510,508,505
185208,518,516,517
185212,512,528,530
185217,524,527,529
185221,513,495,487
185225,493,493,492
185229,493,489,499
185233,502,494,499
185237,514,539,522
185240,516,523,512
185243,516,527,514
185247,508,530,531
185251,494,514,507
185255,492,496,492
185260,503,498,492
185264,503,504,502
185268,504,510,523
185272,508,515,512
185276,515,497,493
185280,507,490,491
185284,504,496,500
185288,505,518,529
185292,518,519,523
185295,521,491,512
185298,509,491,524
185303,496,536,518
185307,498,520,510
185311,497,511,509
185315,510,519,505
185319,516,508,510
185323,514,495,505
185327,512,501,499
185331,510,502,491
185335,506,478,500
185339,502,507,513
185344,508,516,510
185348,505,523,513
185351,506,513,511
185355,506,525,536
185359,511,555,521
185363,504,519,506
185367,500,495,511
185371,509,475,499
185375,497,481,505
185379,503,517,521
185383,511,535,517
185388,513,532,515
185392,515,526,527
185396,513,529,528
185400,519,502,497
185404,502,493,496
185407,498,518,512
185411,502,541,526
185415,504,517,519
185419,499,514,510
185423,506,493,494
185427,508,495,493
185432,505,497,501
185436,506,492,510
185440,507,511,520
185444,501,508,508
185448,498,514,505
185452,504,519,514
185456,500,517,515
185460,507,514,505
185463,505,503,495
185466,504,480,493
185470,506,503,509
185475,509,532,537
185479,518,552,541
185483,518,510,509
185487,511,501,507
185491,496,500,507
185495,511,501,506
185499,514,502,504
185503,517,501,499
185507,510,509,496
185511,508,509,517
185516,506,512,527
185519,509,507,514
185522,508,508,504
185526,499,509,505
185530,502,513,505
185534,508,506,506
185538,511,507,509
185542,504,518,517
185546,506,516,508
185550,508,527,507
185554,508,514,507
185559,513,510,509
185563,505,516,527
185567,509,511,511
185571,513,504,496
185574,510,505,497
185577,509,513,499
185581,499,519,501
185585,506,522,501
185589,518,516,495
185593,520,509,505
185597,499,514,506
185602,500,511,500
185606,510,507,507
185610,515,507,516
185614,513,506,513
185618,516,513,516
185622,511,520,509
185626,519,519,511
185629,508,507,501
185632,510,507,496
185636,502,503,496
185640,503,503,492
185645,503,516,488
185649,507,522,494
185653,508,512,511
185657,507,503,510
185661,508,499,508
185665,506,500,506
185669,512,503,507
185673,508,501,504
185677,506,507,504
185681,505,504,502
185684,500,508,507
185688,505,513,509
185692,509,517,506
185696,511,517,499
185700,511,509,494
185704,516,508,504
185708,516,509,511
185712,514,506,505
185716,510,508,506
185720,514,517,512
185724,512,507,506
185729,516,508,507
185733,509,508,506
185737,505,509,505
185741,510,505,501
185744,510,510,505
185748,516,510,507
185752,502,506,507
185756,500,511,502
185760,514,517,494
185764,509,509,510
185768,507,506,505
185773,500,503,506
185777,497,507,509
185781,502,510,506
185785,506,502,492
185789,507,506,501
185793,503,499,499
185797,512,498,505
185800,510,511,513
185804,508,513,496
185808,504,505,515
185812,509,499,525
185817,501,500,511
185821,507,506,510
185825,510,511,510
185829,503,515,506
185833,508,512,511
185837,506,506,508
185841,507,501,492
185845,509,497,499
185849,501,510,507
185853,499,514,504
185857,502,502,501
185861,509,499,497
185865,506,501,511
185869,496,501,507
185873,503,495,493
185877,505,507,516
185881,503,511,522
185885,505,499,495
185889,501,493,496
185893,502,495,504
185897,506,495,496
185902,505,497,499
185906,499,500,505
185910,500,507,517
185913,503,512,524
185917,506,511,522
185921,513,507,520
185925,510,502,513
185929,507,501,509
185933,499,504,502
185937,500,509,504
185942,509,511,506
185946,521,508,507
185950,509,504,504
185954,500,508,504
185958,500,515,509
185962,506,513,512
185966,505,507,507
185969,510,502,502
185973,513,505,504
185977,521,511,508
185981,512,513,507
185986,510,511,503
185990,508,512,502
185994,510,515,504
185998,518,518,501
186002,504,515,503
186006,501,507,511
186010,512,504,505
186014,515,513,507
186018,511,515,512
186022,504,512,510
186025,507,507,508
186030,510,504,503
186034,512,506,505
186038,508,510,510
186042,509,514,509
186046,510,512,511
186050,508,506,510
186054,504,508,509
186058,514,513,510
186062,509,507,507
186066,509,509,511
186071,508,510,506
186075,505,513,511
186079,507,513,516
186082,511,510,519
186086,507,511,521
186090,513,512,514
186094,515,508,503
186098,508,504,494
186102,512,516,514
186106,509,522,522
186110,508,515,516
186115,510,518,513
186119,511,518,515
186123,507,513,520
186127,509,506,515
186131,508,508,515
186135,506,513,517
186138,507,519,512
186142,505,518,516
186146,508,510,515
186150,513,510,508
186155,517,507,506
186159,503,498,504
186163,503,508,509
186167,504,520,517
186171,505,528,521
186175,508,522,518
186179,506,511,509
186183,504,504,501
186187,504,508,507
186191,504,517,518
186194,506,517,513
186199,505,513,509
186203,505,512,503
186207,509,513,509
186211,506,509,509
186215,508,499,494
186219,512,502,502
186223,510,509,514
186227,508,519,520
186231,507,524,513
186235,504,520,509
186240,503,514,504
186244,508,514,498
186248,513,511,501
186251,514,510,501
186255,511,508,502
186259,507,507,504
186263,505,510,505
186267,509,509,502
186271,502,512,500
186275,507,508,503
186279,511,509,506
186284,511,507,506
186288,508,505,500
186292,508,510,503
186296,510,512,507
186300,512,504,503
186304,518,505,507
186307,512,509,505
186311,507,509,498
186315,499,506,491
186319,502,507,495
186323,511,514,514
186328,512,511,518
186332,508,507,518
186336,504,504,518
186340,510,505,517
186344,513,510,515
186348,508,512,513
186352,512,510,512
186356,508,507,512
186360,507,510,511
186363,506,514,511
186368,506,516,513
186372,505,512,514
186376,509,510,515
186380,514,512,515
186384,515,516,515
186388,510,513,514
186392,505,506,511
186396,506,508,512
186400,506,511,513
186404,509,515,517
186408,507,513,513
186413,510,512,511
186417,509,514,507
186420,508,512,506
186424,506,511,515
186428,507,513,517
186432,506,514,514
186436,506,514,515
186440,506,512,514
186444,507,508,512
186448,509,507,513
186452,505,506,511
186457,508,508,511
186461,508,512,510
186465,507,516,511
186469,505,515,515
186473,505,512,517
186476,511,512,515
186480,513,512,514
186484,515,513,512
186488,517,512,512
186492,512,513,515
186497,507,512,513
186501,503,515,515
186505,510,512,513
186509,504,508,509
186513,505,509,510
186517,508,511,516
186521,506,512,519
186525,504,509,516
186529,504,506,514
186532,506,511,514
186535,508,515,516
186540,511,513,517
186544,508,507,517
186548,510,505,519
186552,507,506,517
186556,506,514,515
186560,508,514,513
186564,510,508,513
186568,508,505,512
186572,511,508,512
186576,505,509,510
186580,506,509,509
186585,505,508,508
186588,507,509,510
186591,507,513,511
186595,510,515,512
186599,508,514,514
186603,512,512,514
186607,504,513,513
186611,503,515,511
186615,506,515,512
186619,503,514,512
186624,505,516,523
186628,510,518,524
186632,513,513,511
186636,511,508,512
186640,512,505,509
186644,510,504,509
186648,509,504,512
186652,507,505,511
186656,505,503,514
186660,507,501,516
186664,508,504,512
186669,510,509,506
186673,507,515,516
186677,506,512,517
186681,508,510,514
186685,505,509,513
186689,508,515,513
186693,511,516,512
186697,511,512,514
186700,508,508,512
186704,507,509,510
186708,508,511,508
186713,506,512,510
186717,506,513,509
186721,505,512,515
186725,509,510,519
186729,510,513,521
186733,513,510,515
186737,509,503,515
186741,504,502,516
186745,508,505,513
186749,511,506,511
186754,510,503,507
186757,509,503,508
186761,507,503,512
186765,505,507,512
186769,506,514,512
186773,508,512,512
186777,510,506,513
186781,507,504,515
186785,505,509,515
186789,514,511,514
186793,509,510,512
186798,507,508,514
186802,509,509,514
186806,509,509,511
186810,506,508,516
186813,513,507,515
186817,512,506,513
186821,511,509,514
186825,509,507,513
186829,503,505,513
186833,507,504,511
186838,508,506,511
186842,507,509,511
186846,510,508,510
186850,511,504,507
186854,508,502,505
186858,504,504,510
186862,506,507,511
186866,506,514,515
186869,506,520,519
186873,507,525,518
186877,509,514,507
186882,510,502,508
186886,507,503,511
186890,506,505,511
186894,501,505,513
186898,510,509,509
186902,509,515,507
186906,508,518,514
186910,504,516,518
186914,506,510,515
186918,507,509,512
186923,511,510,508
186926,509,511,512
186929,506,508,511
186933,505,505,505
186937,508,504,509
186941,507,511,515
186945,506,513,519
186949,508,506,520
186953,510,505,516
186957,506,505,512
186961,505,505,510
186966,505,509,503
186970,507,510,506
186974,506,510,513
186978,507,510,511
186982,508,509,507
186986,507,511,505
186990,505,507,505
186994,507,502,510
186998,508,505,510
187002,508,505,508
187006,509,505,507
187011,512,507,506
187015,507,511,510
187019,509,511,510
187023,516,507,510
187027,508,505,510
187031,504,503,510
187035,507,504,508
187038,512,507,506
187042,504,504,507
187046,503,498,506
187051,508,498,507
187055,509,506,507
187059,507,511,509
187063,503,506,509
187067,509,497,508
187071,510,502,509
187075,507,511,509
187079,508,511,510
187083,505,507,512
187087,505,505,510
187091,506,507,512
187095,509,510,512
187098,506,510,511
187102,504,507,510
187106,507,504,508
187110,511,505,509
187114,512,510,510
187118,515,512,509
187122,510,508,507
187126,505,508,505
187130,507,509,505
187134,510,512,505
187139,509,513,507
187143,506,505,507
187147,506,506,509
187150,509,514,510
187153,510,515,511
187157,512,511,512
187161,500,504,508
187165,503,502,512
187169,509,505,514
187173,513,509,512
187177,510,509,511
187182,510,505,507
187186,510,510,508
187190,511,509,508
187194,509,504,506
187198,507,505,508
187202,505,510,510
187205,509,510,508
187208,513,509,508
187212,511,509,510
187216,509,512,514
187220,508,512,511
187225,509,511,511
187229,511,514,512
187233,502,514,511
187237,503,510,509
187241,510,511,509
187245,518,511,506
187249,509,510,503
187253,506,507,508
187257,502,505,511
187261,504,507,511
187265,508,510,509
187269,508,513,504
187273,505,507,512
187277,506,504,515
187281,503,509,512
187285,507,512,512
187289,509,512,511
187293,510,511,511
187297,507,509,511
187301,505,507,509
187305,507,510,506
187310,507,511,507
187314,506,511,502
187318,504,513,510
187321,505,516,512
187325,510,516,510
187329,506,512,508
187333,505,507,504
187337,503,506,502
187341,506,511,503
187345,510,518,510
187350,509,516,521
187354,506,503,511
187358,504,500,505
187362,508,504,508
187366,511,505,508
187370,507,502,503
187374,505,501,506
187377,504,505,511
187381,504,512,511
187385,501,513,512
187389,509,508,512
187394,504,503,509
187398,504,505,509
187402,507,507,509
187406,503,507,505
187410,506,509,507
187414,501,514,511
187418,505,516,510
187422,504,517,509
187426,501,512,507
187430,502,505,504
187433,507,504,503
187438,513,504,504
187442,510,505,508
187446,509,504,509
187450,510,503,505
187454,508,511,507
187458,508,516,518
187462,509,508,515
187466,510,496,502
187470,508,493,503
187474,504,500,503
187479,505,511,502
187483,507,511,502
187487,504,508,500
187490,504,508,506
187494,507,510,511
187498,510,512,511
187502,508,509,510
187506,503,506,509
187510,504,505,505
187514,507,508,506
187518,506,511,507
187523,505,507,504
187527,509,502,506
187531,510,506,503
187535,506,513,499
187539,508,517,503
187543,511,512,503
187546,508,508,508
187550,502,508,505
187554,506,508,505
187558,506,513,513
187563,506,514,516
187567,509,514,516
187571,507,513,513
187575,507,511,512
187579,506,513,512
187583,504,512,512
187587,505,508,513
187591,509,510,515
187595,511,512,514
187599,510,516,511
187602,514,513,511
187607,510,505,509
187611,508,504,505
187615,506,509,507
187619,504,511,507
187623,501,509,507
187627,504,506,506
187631,509,510,505
187635,506,513,503
187639,506,510,505
187643,505,505,507
187648,504,507,506
187652,504,511,504
187656,507,513,505
187659,506,510,502
187663,501,507,502
187667,506,507,506
187671,505,509,505
187675,507,511,504
187679,507,508,507
187683,509,507,510
187687,506,509,512
187692,506,511,512
187696,508,509,507
187700,509,504,502
187704,510,499,501
187708,512,507,498
187712,509,509,505
187715,506,506,506
187719,505,508,506
187723,508,514,507
187727,509,513,508
187731,506,519,508
187736,509,515,508
187740,509,506,511
187744,511,505,511
187748,511,508,510
187752,512,510,512
187756,507,507,510
187760,507,504,512
187764,506,505,511
187768,506,510,512
187771,506,512,511
187776,505,510,513
187780,504,511,515
187784,506,508,515
187788,509,508,516
187792,509,512,512
187796,507,509,509
187800,508,506,512
187804,507,507,517
187808,513,509,512
187812,511,514,508
187816,509,508,507
187821,511,501,508
187825,508,503,510
187828,507,509,512
187832,506,508,508
187836,506,506,504
187840,509,506,504
187844,511,509,502
187848,509,514,500
187852,507,509,503
187856,507,508,507
187860,510,512,511
187865,512,515,509
187869,511,517,506
187873,511,518,505
187877,512,514,511
187881,512,511,512
187884,507,510,510
187888,506,510,509
187892,507,511,508
187896,506,514,508
187900,506,515,505
187905,509,516,501
187909,506,511,501
187913,505,507,503
187917,506,510,506
187921,507,511,509
187925,505,513,509
187929,505,511,509
187933,505,513,507
187937,501,511,511
187940,501,508,507
187944,504,506,504
187949,504,506,507
187953,504,503,507
187957,505,503,506
187961,507,508,506
187965,508,512,509
187969,505,513,507
187973,505,511,505
187977,509,508,515
187981,508,507,515
187985,509,504,514
187990,510,501,512
187994,509,503,510
187997,507,510,508
188001,511,515,508
188005,509,512,509
188009,506,510,508
188013,508,511,509
188017,511,511,510
188021,510,512,510
188025,506,510,510
188029,505,506,509
188034,509,514,507
188038,506,516,511
188042,506,509,509
188046,505,505,508
188050,507,502,509
188053,507,500,510
188057,501,504,508
188061,505,514,507
188065,510,513,512
188069,507,505,512
188073,506,507,510
188078,508,511,511
188082,509,510,511
188086,506,507,510
188090,505,507,508
188094,509,505,511
188098,512,507,513
188102,505,509,511
188106,499,511,512
188109,508,508,510
188113,508,508,508
188118,507,512,508
188122,504,515,510
188126,502,512,511
188130,506,510,511
188134,511,511,512
188138,513,520,509
188142,504,515,510
188146,503,505,509
188150,506,508,509
188154,508,515,510
188158,510,513,508
188163,505,505,509
188166,506,503,509
188170,510,502,506
188174,511,504,510
188178,507,504,512
188182,505,503,511
188186,502,502,511
188190,507,509,511
188194,507,514,509
188198,510,514,508
188203,509,512,509
188207,509,511,512
188211,508,513,511
188215,507,516,511
188219,507,515,511
188222,508,513,512
188226,506,518,510
188230,505,515,505
188234,507,510,507
188238,505,505,506
188242,504,502,507
188247,506,507,508
188251,508,511,508
188255,506,512,505
188259,505,509,506
188263,509,511,508
188267,509,510,511
188271,510,510,514
188275,507,507,510
188278,507,505,509
188282,504,504,509
188286,508,508,511
188291,513,509,512
188295,511,507,510
188299,508,506,506
188303,506,507,508
188307,509,507,512
188311,509,513,514
188315,506,519,514
188319,508,508,514
188323,507,501,510
188327,508,504,508
188332,507,509,507
188335,511,510,507
188339,508,510,507
188343,507,511,506
188347,508,515,504
188351,506,519,504
188355,504,514,508
188359,504,509,512
188363,503,511,509
188367,511,515,505
188371,509,516,505
188376,507,510,509
188380,511,506,512
188384,511,508,510
188388,510,509,510
188391,508,510,509
188395,511,509,507
188399,505,509,508
188403,504,515,510
188407,506,521,509
188411,506,518,511
188416,507,509,511
188420,509,505,510
188424,509,507,509
188428,510,510,508
188432,508,513,508
188436,507,514,507
188440,506,511,511
188444,509,510,506
188447,507,510,505
188451,508,507,508
188455,504,502,514
188460,508,504,513
188464,515,504,510
188468,510,505,511
188472,502,504,510
188476,501,504,510
188480,505,507,509
188484,508,512,509
188488,510,512,508
188492,505,509,507
188496,507,506,506
188500,511,510,507
188504,513,520,506
188508,510,517,510
188512,507,505,506
188516,507,506,503
188520,507,510,508
188524,507,512,511
188528,508,511,508
188532,509,509,507
188536,512,507,507
188540,515,511,510
188545,514,515,515
188549,510,515,516
188553,506,517,517
188557,506,516,513
188560,507,515,512
188564,509,509,511
188568,507,506,513
188572,505,508,515
188576,505,512,512
188580,506,513,511
188584,512,510,510
188589,511,509,511
188593,510,511,512
188597,512,512,510
188601,511,514,509
188605,512,518,504
188609,506,514,508
188613,505,507,512
188616,509,509,509
188620,509,511,506
188624,509,509,506
188628,506,510,517
188633,506,509,517
188637,509,510,513
188641,509,510,510
188645,508,508,509
188649,511,509,509
188653,508,510,510
188657,508,513,512
188661,511,513,505
188665,507,512,506
188669,510,511,507
188673,514,508,506
188677,511,511,506
188681,510,514,507
188685,507,515,506
188689,506,513,507
188693,511,513,506
188697,511,513,505
188701,509,511,509
188705,505,513,509
188709,507,509,510
188713,506,507,508
188718,507,511,509
188722,507,513,512
188725,509,508,507
188728,508,505,508
188732,511,506,509
188736,510,508,510
188740,504,507,512
188744,505,504,511
188748,504,506,507
188752,507,510,508
188756,510,511,508
188761,510,508,508
188765,510,507,509
188769,509,507,506
188773,507,506,505
188777,506,504,509
188780,507,501,508
188783,508,502,505
188787,503,508,501
188791,509,510,500
188795,509,510,503
188800,505,509,508
188804,506,513,507
188808,508,515,509
188812,510,508,511
188816,510,504,510
188820,509,509,510
188824,510,506,512
188828,510,504,513
188832,512,507,514
188836,509,504,508
188839,509,503,507
188844,506,505,509
188848,511,511,507
188852,509,512,509
188856,506,511,508
188860,503,514,507
188864,508,515,509
188868,511,513,506
188872,507,512,505
188876,503,514,505
188880,504,517,505
188884,508,517,511
188889,511,518,510
188893,504,516,507
188896,503,514,505
188900,505,515,505
188904,508,515,502
188908,507,518,503
188912,504,518,513
188916,504,513,512
188920,508,515,512
188924,509,514,510
188929,512,513,511
188933,507,508,509
188937,506,508,512
188941,508,512,510
188945,509,509,508
188949,510,506,508
188952,505,506,506
188956,504,511,503
188960,504,507,505
188964,507,502,504
188968,506,502,504
188973,506,504,503
188977,506,508,507
188981,507,511,510
188985,506,511,511
188989,505,509,510
188993,505,508,508
188997,507,513,509
189001,510,518,510
189005,512,517,509
189008,508,512,510
189012,507,509,506
189017,505,512,503
189021,508,522,511
189025,507,514,509
189029,509,504,512
189033,509,504,513
189037,507,505,510
189041,505,508,508
189045,504,512,509
189049,504,513,511
189053,503,512,510
189058,506,515,509
189062,506,517,508
189065,505,517,509
189069,504,512,508
189073,503,509,508
189077,505,513,511
189081,509,517,513
189085,506,514,511
189089,503,509,510
189093,506,510,507
189097,509,513,508
189102,507,513,510
189106,505,512,512
189110,505,506,506
189114,507,508,504
189118,505,509,507
189121,506,508,509
189125,506,505,512
189129,506,506,511
189133,505,508,509
189137,504,509,509
189142,504,510,509
189146,504,503,508
189150,504,502,509
189154,508,504,506
189158,510,508,508
189162,508,506,512
189166,509,502,511
189170,506,500,513
189174,506,501,510
189177,513,507,510
189181,511,503,506
189186,507,499,506
189190,503,504,500
189194,504,511,508
189198,508,509,516
189202,506,508,512
189206,506,509,512
189210,509,507,506
189214,507,509,506
189218,509,512,506
189222,509,508,504
189227,507,504,505
189231,508,505,505
189234,507,507,508
189238,509,508,507
189242,507,507,505
189246,508,506,505
189250,509,508,505
189254,509,511,506
189258,507,510,506
189262,507,508,506
189266,507,507,507
189271,502,510,507
189275,502,512,506
189279,504,508,507
189283,503,506,507
189287,506,507,509
189290,507,512,508
189294,504,513,506
189298,506,512,507
189302,504,509,509
189306,506,511,506
189310,510,516,504
189315,514,514,505
189319,510,511,503
189323,506,511,506
189327,505,516,508
189331,504,514,508
189335,506,512,509
189339,506,511,504
189343,509,509,504
189347,511,513,513
189351,509,515,515
189356,503,509,509
189360,502,507,507
189364,510,512,508
189368,508,516,506
189372,506,515,507
189376,504,512,508
189380,502,508,507
189384,507,512,505
189388,508,515,503
189392,511,513,505
189396,508,504,506
189400,509,502,509
189404,512,504,507
189408,510,507,506
189412,510,507,504
189416,507,507,507
189420,506,512,508
189424,508,511,504
189428,509,512,506
189432,510,509,507
189436,510,502,512
189441,509,499,512
189445,509,506,506
189449,505,511,505
189453,503,506,510
189456,504,506,514
189459,506,508,512
189463,509,512,510
189467,513,512,508
189471,509,506,506
189475,506,507,505
189479,509,511,505
189484,514,510,509
189488,515,510,511
189492,511,506,507
189496,508,504,508
189500,511,505,509
189504,516,508,510
189508,513,508,509
189511,512,507,508
189514,507,505,509
189518,518,508,510
189522,517,514,510
189527,514,513,508
189531,507,509,504
189535,502,509,505
189539,509,509,506
189543,508,509,506
189547,507,510,505
189551,501,510,509
189555,504,512,508
189559,509,511,507
189563,509,513,512
189566,505,513,516
189570,506,506,513
189574,509,505,511
189578,511,512,511
189582,505,513,511
189586,504,510,511
189590,503,509,511
189594,508,511,509
189598,511,515,505
189602,513,515,509
189606,512,513,510
189611,505,513,509
189615,508,512,512
189619,513,517,514
189622,510,517,509
189625,503,513,511
189629,506,512,515
189633,510,514,518
189637,509,517,514
189641,511,515,510
189645,509,511,506
189649,512,511,508
189654,514,513,509
189658,512,514,508
189662,507,510,508
189666,503,509,511
189670,504,510,508
189674,506,515,507
189678,511,514,506
189682,505,504,504
189686,503,502,507
189690,504,504,508
189694,510,510,506
189699,511,510,505
189703,505,507,504
189707,502,504,504
189711,505,506,505
189715,510,509,502
189719,511,509,504
189723,507,507,503
189727,501,510,505
189731,504,511,502
189734,506,510,501
189739,512,509,504
189743,505,505,507
