17825,508,499,507
17829,510,503,507
17833,515,508,505
17838,513,507,507
17842,508,507,507
17846,500,507,507
17850,495,512,509
17854,510,513,508
17858,511,510,505
17862,514,507,506
17865,510,505,510
17868,496,508,511
17871,498,511,510
17874,504,511,509
17879,513,503,507
17883,516,503,508
17887,517,510,507
17891,510,510,508
17895,514,511,510
17899,504,509,510
17903,507,506,509
17907,504,502,508
17911,499,504,509
17915,502,502,508
17920,506,501,512
17924,513,502,512
17928,518,508,508
17932,518,506,505
17936,504,504,503
17940,501,503,502
17944,499,509,503
17948,506,513,504
17952,514,519,506
17956,520,510,501
17960,500,504,502
17965,495,507,504
17969,497,514,508
17973,509,513,507
17977,506,508,505
17981,503,508,506
17985,501,507,504
17989,510,508,505
17993,516,508,508
17997,503,505,509
18001,506,507,509
18006,510,510,510
18010,502,509,508
18014,507,504,505
18018,517,503,507
18022,500,506,508
18026,515,510,505
18029,508,511,506
18032,509,508,507
18035,504,504,508
18039,502,508,512
18043,509,512,513
18048,508,515,514
18052,508,510,514
18056,500,502,510
18060,503,504,508
18064,510,509,509
18068,516,504,508
18072,504,507,510
18076,502,505,510
18080,513,509,509
18084,508,512,507
18088,509,511,507
18093,509,509,508
18097,514,504,507
18101,499,505,509
18105,485,507,509
18109,496,506,507
18113,504,504,507
18117,511,506,508
18121,510,508,507
18125,510,509,507
18129,510,508,505
18134,509,506,507
18138,513,508,510
18142,512,514,510
18146,516,516,508
18150,513,509,506
18154,508,505,508
18158,504,507,511
18162,502,512,512
18166,507,511,511
18170,515,509,508
18174,515,510,508
18179,500,511,507
18183,501,513,506
18187,509,514,506
18190,514,510,505
18193,509,506,507
18196,512,511,508
18199,508,515,509
18203,504,513,512
18207,504,512,512
18211,506,509,510
18215,510,514,511
18220,506,516,511
18224,514,513,508
18228,511,511,509
18232,503,512,510
18236,518,509,508
18240,516,511,508
18244,502,514,513
18248,502,503,509
18252,505,502,507
18256,507,504,507
18260,506,506,508
18265,511,505,509
18269,510,501,506
18273,511,507,506
18277,502,511,506
18281,500,507,506
18285,501,505,506
18289,503,504,508
18293,508,508,513
18297,508,511,513
18301,511,509,507
18306,503,506,506
18310,497,506,510
18314,503,509,509
18318,507,510,511
18322,512,509,511
18326,506,508,509
18330,506,512,507
18334,500,510,506
18338,503,514,510
18342,509,511,508
18347,503,508,508
18351,497,505,510
18354,500,503,511
18357,503,509,510
18360,509,509,509
18364,512,508,507
18368,523,507,506
18372,508,512,511
18376,499,520,514
18380,500,513,510
18384,507,504,508
18388,508,506,511
18393,501,511,512
18397,503,508,510
18401,504,502,505
18405,503,502,504
18409,504,505,508
18413,510,511,509
18417,516,513,510
18421,514,510,511
18425,501,508,508
18429,497,508,510
18434,501,509,508
18438,505,510,508
18442,504,508,509
18446,504,505,505
18450,516,507,508
18454,527,509,511
18458,510,512,510
18462,503,510,508
18466,497,506,506
18470,507,508,507
18475,501,511,511
18479,500,508,511
18483,502,500,509
18487,500,500,509
18491,511,504,509
18495,514,508,509
18499,509,504,510
18503,501,502,508
18507,499,500,505
18511,500,505,507
18514,510,511,507
18518,515,509,507
18521,508,505,506
18525,510,505,507
18529,508,507,509
18533,510,510,510
18537,510,503,505
18541,511,498,505
18545,513,502,509
18549,517,507,510
18553,519,504,508
18557,518,501,507
18562,514,499,507
18566,508,506,509
18570,505,511,510
18574,499,509,513
18578,508,502,513
18582,507,502,512
18586,505,508,515
18590,502,512,515
18594,502,505,508
18598,505,501,506
18603,510,501,509
18607,521,504,509
18611,514,510,510
18615,512,507,509
18619,498,505,507
18623,502,506,507
18627,505,512,508
18631,508,514,511
18635,511,512,510
18639,518,507,508
18643,513,508,509
18648,507,510,510
18652,511,511,508
18656,510,509,508
18660,503,510,509
18664,512,512,510
18668,510,513,510
18672,503,513,509
18676,503,510,507
18679,506,512,507
18682,507,514,505
18685,507,511,505
18690,506,511,507
18694,507,506,506
18698,522,504,505
18702,507,508,507
18706,499,509,507
18710,510,508,506
18714,507,506,503
18718,509,506,507
18722,518,505,507
18726,510,511,509
18731,505,509,507
18735,504,507,509
18739,503,508,509
18743,504,508,509
18747,505,511,510
18751,506,513,510
18755,509,511,510
18759,509,508,508
18763,506,508,507
18767,508,513,507
18771,512,513,506
18776,514,509,507
18780,509,508,510
18784,511,509,509
18788,508,509,510
18792,504,510,508
18796,508,508,511
18800,515,508,512
18804,515,512,511
18808,503,513,509
18812,501,509,507
18817,520,512,508
18821,516,510,508
18825,510,510,509
18829,512,511,510
18833,497,513,509
18837,502,510,507
18840,508,508,509
18843,499,513,510
18846,511,510,508
18850,508,507,507
18854,508,507,509
18859,500,508,508
18863,498,513,509
18867,506,514,505
18871,514,506,505
18875,506,506,508
18879,513,512,510
18883,504,517,511
18887,512,514,511
18891,503,506,508
18895,501,509,510
18899,502,511,511
18904,499,517,512
18908,503,518,514
18912,515,513,512
18916,518,511,510
18920,501,510,509
18924,500,509,507
18928,517,505,506
18932,507,507,508
18936,501,505,507
18940,509,507,507
18945,508,507,510
18949,500,507,510
18953,505,505,512
18957,505,511,516
18961,505,510,512
18965,505,510,511
18969,510,506,510
18973,516,506,512
18977,507,511,512
18981,506,509,511
18985,515,509,511
18990,508,509,510
18994,498,508,511
18998,504,506,510
19001,510,508,509
19004,513,510,510
19007,503,504,511
19010,493,502,511
19014,508,507,513
19018,508,511,514
19022,513,509,514
19026,511,508,513
19031,501,506,514
19035,504,508,515
19039,507,505,512
19043,503,506,508
19047,505,499,507
19051,503,499,506
19055,508,506,509
19059,513,509,510
19063,508,506,510
19067,509,504,512
19072,518,501,510
19076,505,504,510
19080,505,507,508
19084,504,504,508
19088,501,512,512
19092,507,512,510
19096,515,504,505
19100,508,499,501
19104,498,500,501
19108,511,501,505
19112,514,506,510
19117,509,507,510
19121,507,506,512
19125,497,503,508
19129,494,503,510
19133,499,505,510
19137,502,509,509
19141,504,509,508
19145,509,508,508
19149,510,506,508
19153,502,508,507
19158,503,506,505
19162,509,508,504
19165,505,508,504
19168,500,506,505
19171,514,509,505
19175,515,512,505
19179,498,509,504
19183,504,505,503
19187,511,507,506
19191,508,511,507
19195,506,513,507
19200,516,512,506
19204,509,509,506
19208,498,506,507
19212,500,510,508
19216,506,519,510
19220,507,508,505
19224,510,504,508
19228,501,504,507
19232,507,507,510
19236,511,510,511
19240,505,506,510
19245,505,506,509
19249,509,513,508
19253,523,516,507
19257,516,511,503
19261,503,506,501
19265,503,502,502
19269,495,505,505
19273,497,513,507
19277,514,514,509
19281,515,506,504
19286,503,506,504
19290,503,511,508
19294,501,516,507
19298,507,511,505
19302,510,510,509
19306,508,509,510
19310,512,514,510
19314,505,518,510
19318,504,516,507
19322,509,511,506
19325,503,511,506
19329,505,510,504
19332,515,510,502
19336,503,506,500
19340,503,506,500
19344,505,508,501
19348,502,510,504
19352,504,510,505
19356,507,510,506
19360,509,508,508
19364,507,508,510
19368,510,514,512
19373,507,510,510
19377,508,508,509
19381,511,510,510
19385,505,513,509
19389,510,511,506
19393,507,513,507
19397,504,510,508
19401,507,508,507
19405,509,509,508
19409,505,514,510
19414,507,515,508
19418,508,513,510
19422,510,508,510
19426,508,509,509
19430,507,513,509
19434,507,510,508
19438,508,508,506
19442,514,513,510
19446,512,519,512
19450,506,515,512
19454,510,510,511
19459,505,510,512
19463,514,515,515
19467,507,518,515
19471,506,515,513
19475,508,511,513
19479,509,504,510
19483,508,505,511
19487,513,510,512
19490,512,510,511
19493,508,509,512
19496,515,511,516
19501,504,504,513
19505,499,502,512
19509,522,505,512
19513,504,508,513
19517,502,508,513
19521,510,509,509
19525,507,513,509
19529,504,513,510
19533,507,507,509
19537,501,511,510
19542,505,508,508
19546,497,512,511
19550,510,511,509
19554,499,512,508
19558,504,511,506
19562,507,511,507
19566,521,513,507
19570,516,509,506
19574,507,507,506
19578,503,512,509
19582,502,511,507
19587,502,514,509
19591,501,512,508
19595,503,508,508
19599,506,510,507
19603,510,520,508
19607,516,516,504
19611,527,510,504
19615,517,509,506
19619,506,514,507
19623,506,517,505
19628,510,515,504
19632,514,514,504
19636,505,511,504
19640,504,513,506
19644,501,515,504
19648,498,513,502
19651,506,513,505
19654,504,517,509
19657,506,515,506
19661,516,512,503
19665,523,510,502
19670,513,506,503
19674,499,505,504
19678,498,510,504
19682,518,517,504
19686,523,517,503
19690,517,512,503
19694,509,508,504
19698,499,509,503
19702,503,511,503
19706,510,510,506
19710,502,511,509
19715,502,509,508
19719,510,512,506
19723,506,515,507
19727,506,507,503
19731,505,504,506
19735,513,507,508
19739,503,511,509
19743,504,510,509
19747,515,509,506
19751,507,506,507
19756,508,506,507
19760,505,508,507
19764,509,511,507
19768,519,511,509
19772,511,506,509
19776,495,508,510
19780,499,510,511
19784,506,509,509
19788,511,507,508
19792,509,507,507
19796,501,508,510
19801,506,506,508
19805,521,508,507
19809,510,505,505
19812,513,507,508
19815,506,513,509
19818,509,517,508
19821,512,515,506
19825,509,512,506
19829,505,514,508
19833,505,512,508
19837,502,514,509
19842,507,512,509
19846,522,507,510
19850,505,506,511
19854,504,509,511
19858,510,517,509
19862,512,514,508
19866,503,508,508
19870,503,507,511
19874,507,511,511
19878,510,514,510
19883,507,512,509
19887,505,511,510
19891,503,510,510
19895,504,512,510
19899,515,512,512
19903,519,506,510
19907,513,507,511
19911,503,512,511
19915,501,517,510
19919,505,511,508
19923,507,507,507
19928,504,504,508
19932,512,503,509
19936,501,508,513
19940,504,512,511
19944,506,507,510
19948,506,502,511
19952,503,507,511
19956,508,512,509
19960,508,510,507
19964,506,506,507
19969,507,505,506
19973,506,509,507
19976,509,516,511
19979,512,510,509
19982,512,500,509
19986,508,503,512
19990,508,509,511
19994,516,510,507
19998,513,511,505
20002,511,509,506
20006,511,509,509
20011,511,510,508
20015,510,510,506
20019,502,508,506
20023,510,506,506
20027,511,508,506
20031,503,511,504
20035,507,511,503
20039,510,505,505
20043,509,502,507
20047,499,507,509
20051,508,509,507
20056,511,505,507
20060,514,503,508
20064,505,501,510
20068,501,504,510
20072,505,509,511
20076,507,508,512
20080,508,507,510
20084,508,507,512
20088,508,512,514
20092,512,514,513
20097,514,507,511
20101,513,505,508
20105,504,506,505
20109,503,511,508
20113,507,510,511
20117,512,509,511
20121,512,509,510
20125,512,514,512
20129,511,512,508
20133,503,509,507
20137,507,505,509
20141,505,506,512
20144,508,510,514
20148,513,512,512
20152,513,509,509
20156,508,500,508
20160,505,499,506
20164,502,507,509
20168,506,514,512
20172,511,517,511
20176,510,504,507
20180,513,501,506
20185,503,508,509
20189,502,516,510
20193,512,515,510
20197,516,506,508
20201,509,506,509
20205,506,510,509
20209,516,513,512
20213,513,512,512
20217,503,510,511
20221,501,510,512
20226,508,510,513
20230,507,512,512
20234,513,511,511
20238,505,510,511
20242,509,512,511
20246,508,515,513
20250,512,511,512
20254,518,504,511
20258,510,501,510
20262,502,504,511
20267,503,512,513
20271,513,516,512
20275,515,513,512
20279,508,504,513
20283,504,503,512
20287,504,505,512
20291,507,509,512
20295,509,508,508
20299,508,501,504
20302,509,505,504
20305,517,512,505
20308,509,512,503
20313,513,509,505
20317,500,509,509
20321,504,512,508
20325,522,518,509
20329,512,512,507
20333,504,510,510
20337,502,510,511
20341,502,513,510
20345,505,513,510
20349,509,511,508
20354,511,505,509
20358,506,510,510
20362,507,512,509
20366,510,512,507
20370,509,514,507
20374,511,512,509
20378,516,511,510
20382,518,513,510
20386,516,518,510
20390,515,515,510
20395,510,510,509
20399,502,509,509
20403,509,517,509
20407,503,517,508
20411,507,509,507
20415,509,508,508
20419,509,512,510
20423,508,512,510
20427,505,511,508
20431,508,512,509
20435,501,507,510
20440,500,511,513
20444,507,509,511
20448,510,509,508
20452,519,506,507
20456,515,504,507
20460,515,507,508
20463,503,508,508
20466,502,507,508
20469,505,507,510
20472,506,509,514
20476,511,514,516
20481,506,516,515
20485,503,511,512
20489,505,504,507
20493,507,501,508
20497,505,510,511
20501,505,516,511
20505,509,511,510
20509,505,505,509
20513,501,506,510
20517,505,511,508
20521,505,511,507
20526,510,508,507
20530,507,509,509
20534,507,509,509
20538,509,511,511
20542,514,510,509
20546,505,506,509
20550,509,501,509
20554,508,505,512
20558,513,512,513
20562,508,513,510
20567,506,508,510
20571,507,506,511
20575,516,513,513
20579,518,517,514
20583,507,510,508
20587,502,500,506
20591,503,503,508
20595,510,508,505
20599,513,510,504
20603,511,510,507
20608,511,502,508
20612,500,501,510
20616,504,503,510
20620,514,507,508
20624,514,508,509
20627,506,508,509
20630,509,509,510
20633,511,515,511
20636,506,518,510
20640,509,512,506
20644,509,508,508
20648,509,509,510
20653,503,510,512
20657,507,510,512
20661,511,505,509
20665,519,503,509
20669,508,507,511
20673,502,512,510
20677,505,510,506
20681,504,507,502
20685,505,507,503
20689,502,507,504
20694,504,509,507
20698,514,510,505
20702,506,507,507
20706,505,502,509
20710,501,504,508
20714,506,513,509
20718,508,508,508
20722,514,501,509
20726,509,501,510
20730,502,506,509
20734,506,509,509
20739,511,507,508
20743,511,506,511
20747,509,506,514
20751,508,508,514
20755,509,512,513
20759,510,507,511
20763,514,504,511
20767,509,505,513
20771,506,509,512
20775,511,510,510
20780,521,507,508
20784,507,506,508
20788,502,507,512
20791,508,508,515
20794,512,510,513
20797,513,506,511
20801,518,505,513
20805,508,507,513
20809,502,512,511
20813,500,511,510
20817,508,509,510
20822,510,507,510
20826,507,512,512
20830,508,515,510
20834,515,513,506
20838,510,509,506
20842,502,513,512
20846,500,508,511
20850,512,511,510
20854,515,510,508
20858,507,511,509
20862,503,512,510
20867,505,512,511
20871,507,515,510
20875,509,514,507
20879,513,507,503
20883,511,505,508
20887,506,510,509
20891,505,513,509
20895,506,507,509
20899,513,503,507
20903,513,504,507
20908,505,508,508
20912,507,512,510
20916,505,510,509
20920,514,507,509
20924,507,505,510
20928,497,512,512
20932,504,516,512
20936,502,515,512
20940,504,509,512
20944,510,513,511
20948,510,514,510
20953,503,504,505
20956,507,500,505
20959,506,501,507
20962,508,507,509
20966,510,509,508
20970,509,505,505
20974,512,505,505
20978,512,508,508
20982,507,513,509
20986,499,513,508
20990,500,511,508
20995,500,511,508
20999,512,504,504
21003,507,508,506
21007,508,514,507
21011,504,512,509
21015,503,506,507
21019,506,506,507
21023,511,508,506
21027,509,511,506
21031,513,507,504
21036,518,506,507
21040,500,508,507
21044,501,510,507
21048,505,512,509
21052,503,513,508
21056,501,506,506
21060,500,503,507
21064,513,508,511
21068,520,507,509
21072,513,505,508
21076,511,511,511
21081,503,502,506
21085,502,501,505
21089,512,502,504
21093,519,503,506
21097,504,503,509
21101,505,508,510
21105,502,509,507
21109,501,508,508
21113,505,508,510
21117,502,508,510
21121,505,509,510
21124,508,511,510
21127,509,508,509
21131,518,507,508
21135,510,509,509
21139,502,511,509
21143,508,511,510
21147,519,510,508
21151,521,508,506
21155,505,508,504
21159,496,513,506
21164,497,516,506
21168,503,512,506
21172,507,511,506
21176,507,512,507
21180,509,514,512
21184,511,513,511
21188,512,510,509
21192,511,503,504
21196,509,505,504
21200,508,512,509
21204,509,514,510
21209,503,511,510
21213,502,511,511
21217,503,512,512
21221,510,512,509
21225,507,506,507
21229,514,503,508
21233,510,504,511
21237,499,509,513
21241,505,514,513
21245,516,515,514
21250,510,508,511
21254,504,507,508
21258,506,509,508
21262,510,511,507
21266,511,508,508
21270,501,506,509
21274,502,505,510
21278,508,509,508
21282,504,514,510
21285,500,506,507
21288,502,504,507
21292,505,507,507
21296,504,511,507
21300,521,516,508
21304,510,513,512
21308,501,510,512
21312,502,512,513
21316,510,512,508
21320,513,512,506
21324,508,512,505
21328,502,511,505
21332,502,514,508
21337,507,516,509
21341,509,514,507
21345,511,505,504
21349,513,501,504
21353,505,508,509
21357,507,515,512
21361,513,514,512
21365,504,512,512
21369,505,512,512
21373,511,515,511
21378,507,518,513
21382,509,512,512
21386,504,507,512
21390,503,507,513
21394,507,514,514
21398,507,515,513
21402,511,513,510
21406,514,514,512
21410,510,512,512
21414,509,511,513
21419,512,510,512
21423,510,507,511
21427,505,509,512
21431,502,511,512
21435,505,513,512
21439,510,512,510
21443,524,508,508
21446,508,507,507
21449,503,507,505
21452,505,511,505
21456,507,510,507
21460,516,505,507
21465,512,503,508
21469,507,505,510
21473,501,507,508
21477,507,510,506
21481,506,509,508
21485,509,508,511
21489,509,507,511
21493,513,510,509
21497,505,507,507
21501,505,504,507
21506,509,504,508
21510,506,508,511
21514,509,514,509
21518,506,508,504
21522,506,506,504
21526,504,507,506
21530,508,515,507
21534,504,512,506
21538,506,508,508
21542,508,507,511
21547,510,508,510
21551,507,508,506
21555,507,509,502
21559,517,508,504
21563,506,508,506
21567,502,508,509
21571,510,506,511
21575,505,508,512
21579,505,505,510
21583,510,504,509
21587,509,506,510
21592,508,508,507
21596,507,511,504
21600,507,506,505
21604,507,505,508
21607,507,505,513
21610,513,507,513
21613,516,509,512
21616,498,509,510
21620,497,501,510
21624,499,502,512
21628,505,512,514
21633,509,510,511
21637,513,501,508
21641,511,503,511
21645,499,509,512
21649,508,514,513
21653,510,513,510
21657,514,510,507
21661,509,508,513
21665,520,508,515
21669,504,510,511
21673,499,507,510
21678,502,504,511
21682,516,504,509
21686,507,507,505
21690,500,507,503
21694,506,501,509
21698,510,501,512
21702,503,504,512
21706,502,510,517
21710,507,508,515
21714,514,508,510
21719,518,509,511
21723,513,510,513
21727,501,512,514
21731,503,510,514
21735,508,510,512
21739,503,509,513
21743,509,512,511
21747,507,515,510
21751,508,509,512
21755,505,505,511
21760,506,507,512
21764,504,507,512
21768,512,509,508
21771,512,512,504
21774,509,507,504
21777,506,506,510
21781,507,509,510
21785,504,506,509
21789,509,507,513
21793,504,508,512
21797,512,511,511
21801,512,513,505
21806,509,512,502
21810,501,507,506
21814,502,501,505
21818,505,509,505
21822,513,511,504
21826,509,509,508
21830,520,504,512
21834,516,500,503
21838,498,507,493
21842,500,522,502
21847,503,519,507
21851,503,507,522
21855,512,503,521
21859,505,514,517
21863,500,511,511
21867,507,508,504
21871,507,505,498
21875,510,503,500
21879,518,510,508
21883,508,513,504
21888,508,513,513
21892,504,504,500
21896,499,509,503
21900,507,509,523
21904,505,515,527
21908,505,503,493
21912,511,512,486
21916,505,510,500
21920,511,501,503
21924,519,509,516
21928,505,519,536
21932,507,514,536
21935,510,505,514
21938,507,491,456
21942,506,502,469
21946,500,517,523
21950,507,507,540
21954,515,495,513
21958,511,502,491
21962,505,506,523
21966,500,513,543
21970,500,485,508
21975,500,485,498
21979,504,525,539
21983,515,514,521
21987,502,485,482
21991,505,509,503
21995,504,514,530
21999,509,517,539
22003,504,514,532
22007,511,487,522
22011,506,484,521
22016,507,494,525
22020,515,506,534
22024,511,490,512
22028,500,480,506
22032,503,519,535
22036,503,508,530
22040,504,483,522
22044,513,478,532
22048,521,469,534
22052,521,494,543
22056,527,508,545
22061,517,510,551
22065,526,533,559
22069,546,502,552
22073,548,476,518
22077,526,513,538
22081,526,533,550
22085,519,518,552
22089,509,522,562
22093,535,512,568
22096,545,490,559
22099,518,480,527
22103,526,463,506
22107,539,482,531
22111,550,528,570
22115,526,527,550
22119,505,475,543
22123,517,508,545
22127,526,521,534
22131,543,514,526
22135,590,503,527
22139,585,510,515
22144,566,499,530
22148,533,532,569
22152,542,543,557
22156,564,493,525
22160,560,515,522
22164,567,526,550
22168,585,497,528
22172,568,478,526
22176,597,492,504
22180,530,486,492
22184,462,517,549
22189,502,466,531
22193,543,477,530
22197,539,519,520
22201,546,535,530
22205,484,628,593
22209,473,557,563
22213,481,504,528
22217,509,510,496
22221,476,559,533
22225,497,540,562
22230,529,527,521
22234,500,547,523
22238,513,536,573
22242,498,477,494
22246,534,477,508
22250,596,507,536
22254,559,524,555
22257,535,505,532
22260,497,504,494
22263,436,528,489
22267,464,555,475
22272,513,510,502
22276,558,514,524
22280,554,531,529
22284,517,522,507
22288,484,507,523
22292,452,480,450
22296,444,523,482
22300,512,519,524
22304,523,492,508
22308,489,447,427
22312,477,499,454
22317,463,524,520
22321,522,526,561
22325,573,518,495
22329,545,459,443
22333,472,526,469
22337,449,489,471
22341,480,454,457
22345,487,472,483
22349,509,552,557
22353,516,551,560
22358,552,538,507
22362,490,505,456
22366,434,479,461
22370,452,544,516
22374,478,570,566
22378,496,460,471
22382,499,441,428
22386,512,494,427
22390,502,487,461
22394,491,581,555
22398,520,544,460
22403,525,520,494
22407,489,539,542
22411,510,505,515
22415,508,508,477
22419,482,542,478
22422,486,491,427
22425,570,565,479
22428,494,513,526
22432,438,526,532
22436,468,463,429
22440,464,483,473
22445,472,435,423
22449,488,545,567
22453,496,585,566
22457,493,524,456
22461,476,512,468
22465,520,491,498
22469,529,538,499
22473,512,526,471
22477,485,467,473
22481,518,563,518
22486,516,555,510
22490,501,470,441
22494,474,477,390
22498,448,488,480
22502,437,511,547
22506,485,505,540
22510,511,586,513
22514,517,543,482
22518,505,480,494
22522,461,503,476
22526,466,501,508
22531,494,546,527
22535,531,585,530
22539,490,590,492
22543,475,460,438
22547,497,519,543
22551,536,618,589
22555,503,555,497
22559,473,439,399
22563,491,433,405
22567,491,465,463
22572,466,470,455
22576,486,534,530
22580,482,556,587
22583,537,579,578
22586,529,483,461
22589,493,481,482
22592,490,532,491
22596,472,488,437
22600,448,477,484
22604,462,483,479
22608,499,530,494
22612,529,560,542
22617,481,599,571
22621,499,524,524
22625,478,450,475
22629,478,500,471
22633,484,493,505
22637,511,492,485
22641,492,487,451
22645,498,502,499
22649,528,518,528
22653,516,556,507
22658,537,498,464
22662,481,496,476
22666,466,521,500
22670,473,543,526
22674,491,559,508
22678,496,476,458
22682,508,499,493
22686,509,470,499
22690,478,508,547
22694,482,498,501
22699,496,489,473
22703,487,568,521
22707,481,626,539
22711,498,445,464
22715,512,463,528
22719,542,522,513
22723,547,527,510
22727,502,538,498
22731,464,454,442
22735,477,440,443
22739,492,544,546
22744,501,613,608
22747,514,473,473
22750,497,465,466
22753,492,530,509
22757,496,517,496
22761,506,474,468
22765,501,478,488
22769,502,530,547
22773,495,513,519
22777,486,542,497
22781,507,541,515
22786,523,500,527
22790,533,489,493
22794,485,491,474
22798,496,525,456
22802,494,536,519
22806,481,523,511
22810,496,486,506
22814,502,522,556
22818,526,486,494
22822,488,469,450
22827,499,495,477
22831,506,570,503
22835,489,517,505
22839,509,454,477
22843,506,438,485
22847,503,506,537
22851,498,494,536
22855,493,566,542
22859,487,498,488
22863,487,491,482
22867,483,476,479
22872,489,484,515
22876,506,535,538
22880,538,585,526
22884,525,523,546
22888,504,505,518
22892,495,481,468
22896,521,507,492
22900,517,502,495
22904,513,478,516
22907,502,515,498
22910,510,599,524
22914,502,475,488
22918,514,459,499
22922,525,516,540
22926,512,522,502
22930,480,466,487
22934,475,503,515
22938,490,552,539
22942,515,530,523
22946,507,486,471
22950,508,537,495
22955,543,482,471
22959,518,465,466
22963,489,572,613
22967,484,564,573
22971,494,495,484
22975,506,488,452
22979,506,504,481
22983,542,518,524
22987,517,571,528
22991,491,465,488
22995,494,464,496
23000,499,541,512
23004,525,489,488
23008,495,454,490
23012,485,518,538
23016,512,566,539
23020,495,528,486
23024,507,515,495
23028,502,543,517
23032,490,510,488
23036,506,469,472
23041,497,469,471
23045,511,460,483
23049,492,555,597
23053,493,593,612
23057,522,496,486
23061,527,485,474
23065,521,503,507
23069,510,547,557
23072,501,491,489
23075,500,464,459
23078,510,502,508
23083,506,524,532
23087,488,462,482
23091,489,487,470
23095,539,523,539
23099,538,532,559
23103,490,509,515
23107,481,509,484
23111,484,493,490
23115,479,538,518
23119,504,511,533
23123,526,472,487
23128,528,512,500
23132,515,513,515
23136,511,526,522
23140,510,512,503
23144,514,498,491
23148,519,514,525
23152,499,545,524
23156,518,482,486
23160,527,517,532
23164,510,505,540
23169,513,468,460
23173,519,476,444
23177,512,504,495
23181,515,536,540
23185,509,505,544
23189,526,530,523
23193,526,510,497
23197,516,513,513
23201,502,501,518
23205,519,475,490
23209,502,504,523
23214,498,529,534
23218,532,527,484
23222,535,460,460
23226,496,519,553
23230,494,546,577
23233,506,501,489
23236,526,485,458
23239,523,482,473
23243,525,500,522
23247,502,476,487
23251,503,488,475
23256,511,499,485
23260,508,507,506
23264,512,514,498
23268,521,514,506
23272,497,538,542
23276,510,582,547
23280,527,565,564
23284,523,559,569
23288,516,498,478
23292,496,454,456
23297,493,419,440
23301,514,428,467
23305,534,505,479
23309,524,502,488
23313,514,523,519
23317,494,539,544
23321,495,514,535
23325,516,539,529
23329,511,522,492
23333,511,513,529
23337,516,528,520
23342,525,482,460
23346,521,513,526
23350,506,524,540
23354,497,484,494
23358,506,483,515
23362,514,494,516
23366,529,500,487
23370,513,484,471
23374,503,525,560
23378,509,607,591
23383,497,497,481
23387,509,482,465
23391,504,464,472
23394,497,536,514
23397,504,515,501
23400,519,501,497
23403,542,498,520
23407,529,509,530
23411,519,497,490
23415,495,537,491
23419,512,569,496
23424,513,537,520
23428,491,447,517
23432,498,498,535
23436,496,561,546
23440,491,501,480
23444,495,442,507
23448,500,489,504
23452,495,521,525
23456,506,583,587
23460,526,528,509
23464,514,455,451
23469,520,514,449
23473,537,513,502
23477,502,512,522
23481,495,535,543
23485,513,527,508
23489,506,502,511
23493,498,556,546
23497,511,531,517
23501,528,472,507
23505,506,475,491
23510,506,475,489
23514,514,509,526
23518,512,632,615
23522,516,577,545
23526,515,449,470
23530,497,457,479
23534,492,448,485
23538,502,497,536
23542,513,538,517
23546,493,550,496
23550,492,507,504
23555,501,475,464
23558,521,511,489
23561,532,518,536
23564,524,552,556
23568,508,527,521
23572,511,471,498
23576,513,503,505
23580,509,518,530
23584,505,485,502
23588,502,486,527
23592,511,532,556
23597,517,542,514
23601,518,516,496
23605,502,528,513
23609,519,519,499
23613,533,502,515
23617,511,442,503
23621,493,466,524
23625,505,529,560
23629,511,512,517
23633,513,530,485
23638,528,552,477
23642,533,558,524
23646,487,511,480
23650,515,457,462
23654,513,528,519
23658,520,484,485
23662,514,495,523
23666,506,505,526
23670,507,496,514
23674,505,512,551
23678,495,511,530
23683,497,518,519
23687,506,596,558
23691,522,511,461
23695,521,454,462
23699,512,504,494
23703,514,531,489
23707,505,487,508
23711,516,505,520
23715,521,559,530
23718,530,498,499
23721,508,497,469
23725,501,506,493
23729,512,525,506
23733,533,483,502
23737,503,520,537
23741,507,529,542
23745,522,477,478
23749,502,454,521
23753,510,505,511
23757,514,482,438
23761,510,508,515
23766,504,573,552
23770,502,530,535
23774,510,503,499
23778,516,521,493
23782,505,511,545
23786,503,477,525
23790,500,527,503
23794,495,545,510
23798,499,506,524
23802,520,501,509
23806,511,496,509
23811,502,498,499
23815,494,509,515
23819,495,475,483
23823,495,541,504
23827,547,532,547
23831,531,508,516
23835,501,523,492
23839,493,587,540
23843,504,521,495
23847,494,485,490
23852,481,495,494
23856,517,496,494
23860,529,537,536
23864,505,538,534
23868,487,499,507
23872,499,462,471
23876,512,490,517
23880,514,522,514
23883,498,528,521
23886,481,521,520
23889,512,531,499
23894,513,540,532
23898,495,530,552
23902,500,534,513
23906,497,485,457
23910,504,432,463
23914,512,493,490
23918,512,504,517
23922,524,493,522
23926,507,495,488
23930,513,501,501
23934,513,476,485
23939,476,456,504
23943,488,450,485
23947,503,532,537
23951,525,577,557
23955,495,514,508
23959,490,462,496
23963,502,444,490
23967,504,506,504
23971,516,512,491
23975,503,533,527
23980,506,554,544
23984,508,544,497
23988,510,480,501
23992,496,477,495
23996,482,476,496
24000,527,492,504
24004,488,515,527
24008,520,535,507
24012,526,564,527
24016,518,538,522
24020,495,483,474
24025,524,475,522
24029,521,535,524
24033,509,499,514
24037,513,489,510
24041,509,513,501
24045,509,507,488
24048,499,520,473
24051,513,516,522
24055,521,497,530
24059,499,538,533
24064,502,570,516
24068,509,558,532
24072,521,490,511
24076,516,488,480
24080,496,489,466
24084,480,493,501
24088,506,488,512
24092,529,473,477
24096,524,514,503
24100,507,551,519
24104,515,556,542
24109,509,470,496
24113,501,467,511
24117,512,500,508
24121,514,496,500
24125,502,502,510
24129,498,524,533
24133,500,490,503
24137,504,514,489
24141,536,533,528
24145,543,532,536
24150,512,488,471
24154,489,451,480
24158,492,454,506
24162,508,497,515
24166,517,567,579
24170,531,518,534
24174,523,452,470
24178,492,492,491
24182,494,557,534
24186,499,592,555
24190,506,566,503
24195,507,495,492
24199,529,459,476
24203,537,463,489
24207,515,502,505
24210,500,539,545
24213,496,557,562
24216,512,504,493
24220,525,482,483
24224,499,481,496
24228,494,465,498
24232,502,536,511
24237,494,531,550
24241,511,516,522
24245,518,554,533
24249,503,560,561
24253,505,480,518
24257,511,444,472
24261,510,477,485
24265,523,531,511
24269,517,572,501
24273,498,519,545
24278,510,498,537
24282,496,513,523
24286,494,535,506
24290,488,508,489
24294,492,502,509
24298,517,544,559
24302,529,568,550
24306,521,492,502
24310,498,444,479
24314,495,465,486
24318,500,494,499
24323,506,505,510
24327,511,508,517
24331,512,531,502
24335,514,501,517
24339,505,457,492
24343,496,513,536
24347,504,555,539
24351,492,519,475
24355,508,498,472
24359,512,489,504
24364,529,509,500
24368,508,515,525
24371,496,550,573
24374,479,580,553
24377,502,464,491
24380,505,460,486
24384,516,492,482
24388,504,531,506
24392,517,534,473
24396,519,488,485
24400,509,481,518
24404,490,531,505
24409,503,507,509
24413,499,505,536
24417,500,525,527
24421,507,561,519
24425,508,494,492
24429,509,477,473
24433,505,488,490
24437,498,483,503
24441,519,535,534
24445,530,560,552
24450,507,533,533
24454,493,467,474
24458,506,492,461
24462,507,513,530
24466,506,529,546
24470,491,490,491
24474,499,488,497
24478,503,537,532
24482,504,507,507
24486,514,498,493
24491,528,523,480
24495,507,505,520
24499,497,509,524
24503,506,516,509
24507,509,514,518
24511,517,488,491
24515,507,472,502
24519,500,502,500
24523,509,543,500
24527,508,518,511
24530,511,499,508
24534,517,501,512
24537,506,552,555
24540,510,544,542
24544,523,501,489
24548,503,525,489
24552,485,537,502
24556,496,481,494
24560,503,474,500
24564,514,477,502
24568,540,513,509
24572,514,545,504
24577,493,539,523
24581,492,499,497
24585,502,520,519
24589,513,516,509
24593,519,492,495
24597,516,518,506
24601,496,477,486
24605,509,497,506
24609,527,519,535
24613,514,503,514
24617,496,539,502
24622,498,517,535
24626,496,504,541
24630,525,493,494
24634,507,499,478
24638,502,511,483
24642,511,525,492
24646,513,533,541
24650,503,513,529
24654,492,543,551
24658,489,526,514
24663,516,483,473
24667,520,459,473
24671,503,466,483
24675,497,526,496
24679,498,567,495
24683,512,502,512
24687,512,522,539
24691,504,521,503
24694,517,495,526
24697,518,523,520
24700,499,515,512
24705,510,484,523
24709,518,465,490
24713,512,511,511
24717,515,567,512
24721,509,502,479
24725,512,486,506
24729,498,517,542
24733,509,539,533
24737,516,538,509
24741,525,554,519
24745,493,483,496
24750,498,455,464
24754,513,468,478
24758,505,519,480
24762,494,543,521
24766,512,562,510
24770,499,497,499
24774,518,481,501
24778,524,476,497
24782,508,532,505
24786,493,498,520
24791,515,475,506
24795,522,511,518
24799,530,549,541
24803,502,528,523
24807,486,500,511
24811,494,538,518
24815,507,534,501
24819,507,519,472
24823,507,486,483
24827,500,524,527
24832,507,523,505
24836,529,523,486
24840,492,533,522
24844,484,500,492
24848,502,485,493
24852,516,489,483
24856,542,455,494
24859,517,496,530
24862,491,527,553
24866,489,533,521
24870,494,488,470
24875,511,510,518
24879,515,514,511
24883,538,503,503
24887,523,517,520
24891,514,568,512
24895,488,552,522
24899,489,518,551
24903,502,447,486
24907,507,471,508
24911,519,489,509
24915,526,504,448
24920,512,501,432
24924,503,528,522
24928,493,520,526
24932,495,496,510
24936,512,474,526
24940,506,485,529
24944,502,537,505
24948,508,570,479
24952,520,554,553
24956,520,500,535
24961,508,479,502
24965,488,511,536
24969,484,530,536
24973,513,518,540
24977,534,509,494
24981,513,531,494
24985,499,551,565
24989,499,485,516
24993,505,496,461
24997,504,463,479
25001,518,450,482
25006,511,496,507
25010,504,483,498
25014,496,511,508
25018,505,458,489
25021,515,488,519
25024,511,545,523
25027,502,487,494
25031,504,497,541
25035,504,562,560
25039,501,577,534
25043,506,579,540
25048,516,489,482
25052,509,482,464
25056,498,498,480
25060,497,543,533
25064,496,565,552
25068,508,475,488
25072,495,422,488
25076,516,471,522
25080,534,456,505
25084,543,520,510
25089,531,593,537
25093,502,534,485
25097,488,466,471
25101,495,498,493
25105,506,460,510
25109,516,478,485
25113,493,563,544
25117,497,522,535
25121,508,470,529
25125,516,480,523
25129,509,455,480
25134,497,533,547
25138,503,578,562
25142,518,596,535
25146,519,504,471
25150,510,522,534
25154,488,451,485
25158,507,467,494
25162,508,497,505
25166,525,528,527
25170,502,456,489
25175,498,483,495
25179,494,554,498
25182,504,532,537
25185,516,543,511
25188,510,465,514
25191,507,498,512
25195,504,535,534
25199,491,559,601
25203,503,555,562
25207,506,473,504
25211,501,498,459
25216,502,431,429
25220,522,459,495
25224,501,488,486
25228,502,552,495
25232,506,554,506
25236,500,529,527
25240,508,515,511
25244,514,489,490
25248,503,493,518
25252,504,460,525
25256,507,525,562
25261,501,503,533
25265,506,488,473
25269,503,473,467
25273,511,520,506
25277,511,585,503
25281,525,545,524
25285,519,437,480
25289,509,492,481
25293,501,493,527
25297,502,490,546
25302,501,531,569
25306,511,564,543
25310,514,493,465
25314,522,495,473
25318,509,576,539
25322,503,527,503
25326,503,477,485
25330,496,510,525
25334,508,514,488
25338,511,535,514
25342,529,572,521
25346,505,493,495
25349,497,462,515
25352,492,532,512
25356,508,511,510
25360,501,530,531
25364,526,535,534
25368,538,465,497
25372,513,448,471
25376,495,572,516
25380,485,501,479
25384,490,454,433
25389,495,456,458
25393,508,532,551
25397,524,521,573
25401,511,524,534
25405,510,491,513
25409,516,525,500
25413,511,522,496
25417,508,494,481
25421,508,507,497
25425,502,500,556
25430,506,547,588
25434,514,514,519
25438,503,468,514
25442,488,442,499
25446,503,487,486
25450,510,547,504
25454,523,603,513
25458,501,524,515
25462,494,442,471
25466,496,498,463
25470,506,549,487
25475,507,472,493
25479,503,461,482
25483,510,485,497
25487,509,434,472
25491,512,487,484
25495,513,543,510
25499,508,577,549
25503,491,508,544
25506,504,509,561
25509,498,515,523
25512,498,528,502
25517,502,518,517
25521,511,516,517
25525,508,516,509
25529,505,604,562
25533,495,539,495
25537,497,473,471
25541,514,442,477
25545,516,507,486
25549,506,565,517
25553,520,479,478
25558,510,472,498
25562,494,478,515
25566,498,501,524
25570,502,495,509
25574,498,492,533
25578,496,526,514
25582,520,573,536
25586,519,527,513
25590,511,511,521
25594,502,450,492
25598,503,457,468
25603,496,509,509
25607,502,532,516
25611,517,448,483
25615,521,521,511
25619,505,569,514
25623,498,510,542
25627,500,526,522
25631,513,558,460
25635,515,487,496
25639,520,443,533
25644,501,461,517
25648,511,528,526
25652,513,498,499
25656,524,497,513
25660,494,485,519
25664,493,527,517
25668,493,566,525
25671,495,534,521
25674,509,450,470
25677,518,510,479
25681,524,533,497
25686,525,532,502
25690,506,476,497
25694,508,500,533
25698,501,510,520
25702,503,480,475
25706,519,484,509
25710,521,508,527
25714,518,518,530
25718,505,475,479
25722,497,467,488
25726,494,507,526
25731,503,500,512
25735,501,504,522
25739,511,501,507
25743,513,562,530
25747,519,508,500
25751,525,485,491
25755,512,506,510
25759,503,539,519
25763,502,581,563
25767,518,552,517
25772,516,469,469
25776,506,543,457
25780,524,509,525
25784,522,462,520
25788,526,456,479
25792,503,470,498
25796,499,501,545
25800,507,547,592
25804,519,539,558
25808,511,482,491
25812,504,464,466
25817,508,427,430
25821,516,551,500
25825,516,555,559
25829,510,534,546
25833,503,541,519
25836,498,470,460
25839,502,487,503
25842,507,546,584
25846,509,502,491
25850,527,449,455
25854,522,503,509
25859,502,613,560
25863,495,525,510
25867,503,437,462
25871,506,477,494
25875,507,460,511
25879,510,511,560
25883,526,543,505
25887,511,499,477
25891,501,463,449
25895,500,533,549
25900,498,580,570
25904,506,516,522
25908,507,460,470
25912,502,525,484
25916,496,535,489
25920,497,555,586
25924,504,591,616
25928,516,456,470
25932,526,458,458
25936,517,500,465
25940,513,462,454
25945,507,494,510
25949,504,502,522
25953,495,538,512
25957,496,510,466
25961,507,480,482
25965,507,536,520
25969,508,573,586
25973,506,554,522
25977,500,474,491
25981,508,486,521
25986,508,516,617
25990,522,570,605
25994,508,532,481
25998,508,431,422
26001,512,488,474
26004,508,541,479
26007,508,510,467
26011,508,477,475
26015,497,578,543
26019,489,490,540
26023,494,459,490
26028,499,479,492
26032,508,480,467
26036,511,519,482
26040,510,493,503
26044,501,458,495
26048,504,484,494
26052,502,527,519
26056,533,620,578
26060,518,615,569
26064,489,453,491
26068,494,409,499
26073,505,492,519
26077,518,507,461
26081,517,498,497
26085,496,554,570
26089,495,616,592
26093,515,552,507
26097,517,468,465
26101,503,481,456
26105,505,433,419
26109,510,449,465
26114,524,523,503
26118,531,498,505
26122,496,492,533
26126,493,525,575
26130,505,550,531
26134,501,474,473
26138,500,449,453
26142,511,483,450
26146,530,505,477
26150,503,620,585
26155,488,538,553
26159,512,466,483
26163,504,495,472
26166,492,602,539
26169,502,524,520
26172,506,447,542
26176,509,481,534
26180,510,436,454
26184,513,459,485
26188,526,566,546
26192,514,524,486
26196,502,467,493
26201,503,484,492
26205,515,458,454
26209,509,510,493
26213,507,540,501
26217,503,559,523
26221,500,508,522
26225,513,492,484
26229,509,517,536
26233,504,545,513
26237,500,560,518
26242,509,561,564
26246,521,479,531
26250,506,414,519
26254,509,530,537
26258,502,520,492
26262,505,468,467
26266,515,524,519
26270,502,520,500
26274,496,478,449
26278,501,532,511
26283,506,537,486
26287,517,498,487
26291,514,520,548
26295,510,579,560
26299,501,504,476
26303,499,442,459
26307,510,486,480
26311,521,522,547
26315,507,523,537
26319,504,489,503
26323,505,508,513
26327,491,505,495
26330,505,521,544
26333,521,581,577
26336,499,490,521
26340,494,487,496
26344,509,499,476
26348,513,473,436
26352,508,468,468
26356,513,464,534
26360,500,593,579
26364,516,545,523
26369,511,457,476
26373,503,504,467
26377,502,508,519
26381,489,492,510
26385,488,479,523
26389,514,489,502
26393,509,510,588
26397,506,604,625
26401,496,537,516
26405,494,507,458
26409,506,460,449
26414,512,444,468
26418,501,511,498
26422,515,509,519
26426,543,521,517
26430,517,514,513
26434,498,543,556
26438,494,548,544
26442,505,459,456
26446,495,445,446
26450,506,473,450
26455,521,422,443
26459,521,609,548
26463,501,611,584
26467,502,496,534
26471,507,492,545
26475,506,499,597
26479,500,537,583
26483,519,513,472
26487,505,473,447
26490,518,467,449
26493,526,530,503
26497,509,566,513
26500,504,515,506
26504,497,464,480
26508,507,460,477
26512,523,505,499
26516,509,526,542
26520,514,526,535
26524,511,531,550
26528,512,516,513
26532,493,550,505
26536,491,544,528
26541,511,493,520
26545,513,458,473
26549,505,452,416
26553,501,528,504
26557,505,524,533
26561,526,556,557
26565,539,525,534
26569,519,502,512
26573,485,496,511
26577,488,506,516
26582,494,519,514
26586,506,530,508
26590,517,549,526
26594,519,455,471
26598,521,474,488
26602,513,499,551
26606,509,611,617
26610,503,547,527
26614,503,463,453
26618,506,474,462
26622,505,473,463
26627,507,496,489
26631,503,503,491
26635,511,500,494
26639,518,495,501
26643,512,511,518
26647,501,496,488
26650,495,482,481
26653,516,524,503
26656,512,583,520
26659,512,496,493
26663,501,481,524
26668,514,571,623
26672,520,557,569
26676,517,500,494
26680,519,476,481
26684,513,511,496
26688,499,503,475
26692,501,490,471
26696,515,487,466
26700,494,505,469
26704,484,563,566
26708,503,629,588
26713,536,496,513
26717,519,459,493
26721,514,479,493
26725,490,464,472
26729,485,460,482
26733,501,495,498
26737,511,531,513
26741,526,510,515
26745,525,491,497
26749,499,495,537
26754,494,530,531
26758,507,548,513
26762,502,544,522
26766,513,544,518
26770,516,525,469
26774,527,474,481
26778,524,569,582
26782,520,546,544
26786,503,529,498
26790,494,507,493
26795,504,528,520
26799,502,541,522
26803,507,519,491
26807,507,444,468
26811,512,440,465
26814,510,521,516
26817,506,497,515
26820,519,527,521
26824,510,524,509
26828,518,525,476
26832,502,561,501
26836,498,557,557
26841,506,521,550
26845,510,494,536
26849,501,487,511
26853,516,496,519
26857,513,513,530
26861,508,489,498
26865,501,480,495
26869,506,551,541
26873,511,561,518
26877,500,500,500
26882,512,472,494
26886,514,483,477
26890,508,519,512
26894,493,516,521
26898,500,539,519
26902,507,565,526
26906,513,509,516
26910,515,485,502
26914,503,476,479
26918,511,512,487
26923,517,518,493
26927,507,537,480
26931,509,521,516
26935,516,524,543
26939,509,516,521
26943,510,524,512
26947,516,511,509
26951,501,515,502
26955,502,515,496
26959,515,486,479
26963,503,490,484
26968,509,525,524
26972,515,559,561
26976,522,545,519
26979,511,525,473
26982,500,490,520
26985,513,518,544
26989,511,552,524
26993,519,524,505
26997,490,499,493
27001,505,529,519
27005,510,529,537
27010,514,539,542
27014,506,495,483
27018,527,488,494
27022,506,500,504
27026,502,521,496
27030,512,528,533
27034,507,489,502
27038,495,494,507
27042,504,537,514
27046,509,511,491
27051,503,503,489
27055,511,521,534
27059,495,527,509
27063,499,474,458
27067,506,478,507
27071,522,531,553
27075,524,512,501
27079,514,486,484
27083,500,522,527
27087,500,561,528
27091,493,529,533
27096,515,510,492
27100,522,530,507
27104,520,556,558
27108,496,509,526
27112,495,441,480
27116,497,457,477
27120,502,464,488
27124,509,498,517
27128,536,522,496
27132,520,525,513
27137,507,500,541
27140,489,527,533
27143,495,516,523
27146,497,517,500
27150,505,514,502
27154,511,501,502
27158,495,542,573
27162,498,555,552
27166,502,506,470
27170,509,486,470
27174,515,488,507
27179,515,527,519
27183,516,502,501
27187,513,483,483
27191,527,503,471
27195,502,525,525
27199,498,506,538
27203,495,502,512
27207,512,525,537
27211,520,524,527
27215,511,491,506
27219,501,538,502
27224,491,545,485
27228,499,519,461
27232,505,487,484
27236,512,530,569
27240,514,522,524
27244,512,496,508
27248,504,479,519
27252,495,499,532
27256,492,511,521
27260,513,512,526
27265,524,519,541
27269,514,518,481
27273,505,503,500
27277,501,513,510
27281,496,518,476
27285,506,482,489
27289,512,519,525
27293,513,533,523
27297,507,509,515
27301,515,500,519
27304,519,498,500
27308,510,525,537
27311,505,520,519
27315,507,504,470
27319,520,500,501
27323,510,507,528
27327,519,515,529
27331,511,475,482
27335,509,514,491
27339,492,507,510
27343,503,539,538
27347,495,502,498
27352,506,502,512
27356,508,541,533
27360,508,523,508
27364,511,489,491
27368,515,489,496
27372,511,500,507
27376,513,499,510
27380,516,532,539
27384,500,564,520
27388,508,466,493
27393,503,463,478
27397,511,536,515
27401,511,530,537
27405,503,485,506
27409,507,499,532
27413,518,556,531
27417,509,527,492
27421,502,493,493
27425,504,498,531
27429,509,488,548
27433,505,500,503
27438,507,484,487
27442,520,456,441
27446,525,525,505
27450,504,495,514
27454,502,477,495
27458,510,541,543
27462,497,545,548
27465,498,501,517
27468,506,433,453
27471,515,522,486
27475,517,558,538
27480,515,499,525
27484,508,492,516
27488,505,524,512
27492,500,475,493
27496,514,485,515
27500,500,529,507
27504,492,534,521
27508,503,543,516
27512,531,542,519
27516,515,498,503
27521,502,487,511
27525,497,476,485
27529,498,541,518
27533,513,538,549
27537,517,511,490
27541,518,470,483
27545,511,486,504
27549,501,550,519
27553,506,476,429
27557,511,500,522
27561,495,560,576
27566,496,511,516
27570,499,480,485
27574,508,505,516
27578,513,497,519
27582,509,473,478
27586,505,499,485
27590,499,519,519
27594,507,538,540
27598,517,535,530
27602,526,500,505
27607,513,531,495
27611,492,508,538
27615,503,570,548
27619,513,502,509
27623,517,472,489
27626,512,499,504
27629,517,505,510
27632,505,501,487
27635,498,526,509
27639,505,511,518
27643,505,510,535
27648,499,501,524
27652,504,463,487
27656,497,512,490
27660,514,514,480
27664,519,537,511
27668,516,515,533
27672,508,528,522
27676,505,491,458
27680,512,495,491
27684,513,513,520
27688,503,512,554
27693,494,541,555
27697,505,511,510
27701,512,478,490
27705,515,535,533
27709,502,552,527
27713,501,525,508
27717,502,458,478
27721,498,489,503
27725,504,492,516
27729,521,568,546
27734,523,527,543
27738,524,474,471
27742,512,488,477
27746,488,542,513
27750,503,519,513
27754,508,486,511
27758,500,500,545
27762,504,540,510
27766,509,530,493
27770,504,528,499
27774,515,507,493
27779,510,465,465
27783,506,513,492
27787,501,536,529
27790,495,496,511
27793,511,504,549
27796,501,541,541
27800,501,528,512
27804,499,522,486
27808,520,505,511
27812,536,481,513
27816,509,470,512
27821,499,457,508
27825,500,524,523
27829,495,555,513
27833,502,514,478
27837,494,529,505
27841,504,570,583
27845,511,520,508
27849,519,452,475
27853,517,455,465
27857,513,534,572
27862,498,565,564
27866,501,475,473
27870,503,491,478
27874,512,500,499
27878,506,525,543
27882,518,502,500
27886,528,514,516
27890,505,504,506
27894,489,467,464
27898,494,539,540
27902,503,545,545
27907,511,449,479
27911,502,464,474
27915,503,481,509
27919,509,533,535
27923,514,520,530
27927,520,490,493
27931,507,476,438
27935,504,497,506
27939,508,559,526
27943,509,547,497
27948,521,487,513
27951,513,475,488
27954,514,493,486
27957,518,480,497
27961,512,525,493
27965,508,517,513
27969,514,493,499
27973,518,523,505
27977,499,571,622
27981,501,570,581
27985,505,467,456
27990,504,477,454
27994,500,450,430
27998,508,486,453
28002,519,517,512
28006,517,516,509
28010,501,517,493
28014,499,552,529
28018,507,577,525
28022,500,515,494
28026,497,504,542
28030,512,500,536
28035,526,462,489
28039,517,440,447
28043,495,468,474
28047,494,553,571
28051,505,530,564
28055,512,536,517
28059,523,517,487
28063,517,468,478
28067,490,493,505
28071,495,527,473
28076,501,519,491
28080,511,518,524
28084,516,507,512
28088,508,502,521
28092,507,537,523
28096,506,497,485
28100,507,450,492
28104,512,518,526
28108,519,508,537
28112,510,499,507
28115,496,497,494
28119,508,541,475
28122,502,555,523
28126,501,551,583
28130,502,486,560
28134,513,488,483
28138,509,522,489
28142,496,479,483
28146,504,477,471
28150,503,491,502
28154,502,527,530
28158,503,504,480
28163,499,475,479
28167,512,440,453
28171,513,490,468
28175,517,552,537
28179,522,515,521
28183,512,516,518
28187,504,535,514
28191,507,542,544
28195,515,556,587
28199,514,526,538
28204,513,471,492
28208,502,467,503
28212,497,507,471
28216,501,519,462
28220,507,521,501
28224,506,484,486
28228,518,471,503
28232,509,511,547
28236,493,542,497
28240,501,498,465
28244,512,472,492
28249,516,498,537
28253,502,530,515
28257,503,540,511
28261,507,472,471
28265,501,525,528
28269,509,497,529
28273,501,476,521
28276,497,507,574
28279,517,527,550
28282,504,471,449
28286,503,480,448
28291,499,480,471
28295,508,516,521
28299,512,502,503
28303,513,485,482
28307,517,508,487
28311,506,541,519
28315,500,511,522
28319,504,482,508
28323,510,567,519
28327,520,523,527
28332,507,485,505
28336,499,511,513
28340,499,514,537
28344,505,596,556
28348,516,507,485
28352,511,430,486
28356,505,499,519
28360,503,463,506
28364,509,499,518
28368,510,569,543
28372,505,520,505
28377,510,478,480
28381,507,472,477
28385,509,501,464
28389,516,533,481
28393,516,513,505
28397,507,520,495
28401,500,518,492
28405,500,500,487
28409,511,528,516
28413,508,486,498
28418,496,539,524
28422,497,557,579
28426,504,502,537
28430,515,479,507
28434,503,484,534
28437,497,463,520
28440,505,436,445
28443,516,581,532
28446,510,529,510
28450,507,502,486
28454,509,516,493
28459,508,515,509
28463,514,502,495
28467,509,523,485
28471,503,482,477
28475,493,501,512
28479,506,523,519
28483,519,518,521
28487,513,431,496
28491,503,461,512
28495,498,559,551
28499,504,556,533
28504,490,510,498
28508,500,528,506
28512,507,554,553
28516,511,503,512
28520,508,517,501
28524,512,473,471
28528,511,475,462
28532,509,523,492
28536,508,542,528
28540,504,523,518
28545,504,469,484
28549,503,450,500
28553,503,515,533
28557,512,515,539
28561,509,511,519
28565,507,536,521
28569,503,566,541
28573,509,524,543
28577,503,463,499
28581,505,499,498
28585,499,522,476
28590,509,533,474
28594,515,507,484
28598,515,474,494
28601,503,469,479
28604,493,540,528
28607,496,504,514
28611,495,503,504
28615,503,487,483
28619,514,509,449
28623,510,511,503
28627,505,557,582
28632,514,508,542
28636,507,488,513
28640,514,505,505
28644,505,525,519
28648,512,531,528
28652,517,520,502
28656,515,522,504
28660,512,473,478
28664,502,464,506
28668,505,536,524
28673,509,528,495
28677,507,516,500
28681,504,517,503
28685,510,536,513
28689,507,598,574
28693,504,577,530
28697,502,521,487
28701,496,448,490
28705,506,480,540
28709,513,576,649
28713,504,592,641
28718,504,474,451
28722,518,447,415
28726,510,473,481
28730,507,497,521
28734,506,489,448
28738,509,494,442
28742,504,481,452
28746,493,533,460
28750,516,536,475
28754,522,498,506
28759,510,484,534
28763,513,513,530
28766,501,527,552
28769,494,574,631
28773,499,552,563
28777,505,460,471
28781,510,452,467
28785,517,498,496
28789,513,522,549
28793,508,570,580
28797,513,527,476
28802,501,495,442
28806,493,489,458
28810,504,490,488
28814,503,514,556
28818,511,501,518
28822,508,515,497
28826,508,487,485
28830,507,486,501
28834,508,552,530
28838,514,564,531
28843,520,503,520
28847,506,476,477
28851,501,496,469
28855,490,529,536
28859,502,505,520
28863,513,499,510
28867,528,492,498
28871,502,499,527
28875,496,564,557
28879,508,551,516
28883,505,482,482
28888,501,484,506
28892,502,505,500
28896,502,504,497
28900,504,531,510
28904,503,518,523
28908,508,512,536
28912,509,528,523
28916,517,520,535
28920,508,485,480
28924,512,509,485
28928,508,520,515
28931,511,512,522
28934,503,506,497
28938,500,507,505
28942,505,516,526
28946,505,511,533
28950,510,496,499
28954,509,546,506
28958,503,524,440
28962,520,512,472
28966,516,491,510
28971,500,509,516
28975,503,492,505
28979,504,518,541
28983,511,519,541
28987,511,494,507
28991,511,469,489
28995,510,509,511
28999,504,551,528
29003,504,521,509
29007,505,511,509
29011,518,513,487
29016,515,509,498
29020,498,526,537
29024,497,499,528
29028,503,490,511
29032,500,490,509
29036,509,498,502
29040,510,499,491
29044,509,485,475
29048,504,506,498
29052,518,526,541
29057,512,589,551
29061,508,529,525
29065,500,504,502
29069,516,512,488
29073,517,515,491
29077,500,508,498
29081,494,505,490
29085,500,512,494
29089,504,526,510
29092,502,530,506
29095,508,497,502
29099,512,509,509
29103,519,498,505
29107,507,482,505
29111,498,500,515
29115,505,530,523
29119,505,506,518
29123,514,516,520
29127,514,515,503
29131,506,514,501
29135,513,515,511
29139,510,497,494
29144,509,490,483
29148,512,508,503
29152,505,547,546
29156,513,533,549
29160,511,522,490
29164,504,525,466
29168,509,507,502
29172,512,486,519
29176,503,488,502
29180,506,482,484
29185,496,502,507
29189,506,510,517
29193,512,512,493
29197,508,518,499
29201,513,522,513
29205,505,517,506
29209,510,503,500
29213,511,509,506
29217,514,501,505
29221,510,508,512
29225,519,511,512
29230,507,518,505
29234,504,516,500
29238,519,505,506
29242,503,503,508
29246,498,510,508
29250,497,516,509
29253,494,511,508
29256,497,508,506
29259,497,511,501
29263,501,519,501
29267,508,516,504
29272,508,518,507
29276,509,519,507
29280,508,515,498
29284,506,508,501
29288,510,512,508
29292,510,522,511
29296,510,511,505
29300,515,501,508
29304,529,500,502
29308,513,505,502
29313,513,506,497
29317,515,508,492
29321,507,509,502
29325,504,514,497
29329,517,504,485
29333,519,500,487
29337,516,501,497
29341,512,501,504
29345,496,503,496
29349,502,505,492
29353,502,505,490
29358,498,502,491
29362,501,498,490
29366,511,500,489
29370,513,499,488
29374,519,499,486
29378,504,501,488
29382,507,501,489
29386,517,507,487
29390,506,507,486
29394,510,498,492
29399,497,500,494
29403,505,507,493
29407,534,506,494
29411,526,498,492
29414,504,495,491
29417,487,494,493
29420,503,503,492
29423,509,503,492
29427,515,501,492
29431,509,501,493
29435,499,504,498
29440,515,508,498
29444,529,505,499
29448,518,497,499
29452,500,497,499
29456,494,502,500
29460,498,505,502
29464,491,504,503
29468,492,502,505
29472,492,501,504
29476,500,504,503
29480,503,509,504
29485,503,513,501
29489,496,513,501
29493,503,505,504
29497,505,506,504
29501,506,509,503
29505,512,508,504
29509,504,511,507
29513,496,512,505
29517,498,513,505
29521,500,513,504
29526,496,506,496
29530,504,501,496
29534,501,503,502
29538,492,507,505
29542,497,513,500
29546,496,509,495
29550,501,509,499
29554,512,509,507
29558,506,503,506
29562,496,508,507
29566,489,500,503
29571,498,495,506
29575,500,496,513
29578,499,504,512
29581,501,509,512
29584,498,506,511
29588,492,505,515
29592,496,511,515
29596,499,510,516
29600,525,510,521
29604,517,509,521
29608,501,506,508
29613,496,508,507
29617,497,507,510
29621,501,506,510
29625,507,501,512
29629,510,503,512
29633,509,509,510
29637,510,509,503
29641,503,502,500
29645,497,498,508
29649,505,499,524
29654,508,503,526
29658,512,508,525
29662,507,511,528
29666,508,509,521
29670,506,505,513
29674,507,512,513
29678,512,518,516
29682,514,513,520
29686,511,507,518
29690,511,506,510
29694,511,515,519
29699,513,520,519
29703,506,516,519
29707,509,509,519
29711,507,508,515
29715,501,512,514
29719,507,511,514
29723,507,515,500
29727,504,507,488
29731,507,505,513
29735,508,507,528
29739,511,507,514
29742,508,510,502
29745,505,501,502
29749,509,499,520
29753,515,503,527
29757,513,509,528
29761,511,507,527
29765,509,503,520
29769,502,505,516
29773,502,508,512
29777,511,505,512
29782,517,503,513
29786,526,503,512
29790,506,507,512
29794,502,509,512
29798,502,507,513
29802,502,505,511
29806,504,507,511
29810,515,507,512
29814,520,508,510
29818,511,505,510
29822,494,504,513
29827,500,507,517
29831,507,508,516
29835,508,508,516
29839,510,505,518
29843,512,502,516
29847,506,505,515
29851,516,510,514
29855,514,513,512
29859,501,509,512
29863,499,507,513
29868,506,508,513
29872,514,513,511
29876,511,513,510
29880,506,507,510
29884,514,509,514
29888,518,516,516
29892,511,520,512
29896,509,516,515
29900,505,510,512
29903,508,510,513
29906,512,515,514
29910,512,518,514
29914,513,515,513
29918,511,515,513
29922,509,517,516
29926,513,521,520
29930,508,520,518
29934,506,515,514
29938,508,511,509
29942,509,512,508
29946,510,516,510
29950,506,516,512
29955,499,514,513
29959,506,510,512
29963,504,509,511
29967,518,511,512
29971,522,513,510
29975,512,511,509
29979,524,510,509
29983,507,514,511
29987,505,516,514
29991,502,517,514
29996,505,513,514
30000,509,512,517
30004,507,513,514
30008,509,512,514
30012,506,510,513
30016,511,507,514
30020,512,509,514
30024,500,513,513
30028,511,515,512
30032,509,512,510
30036,510,507,512
30041,499,508,513
30045,505,511,514
30049,509,513,512
30053,511,510,509
30057,522,509,508
30061,514,509,514
30064,512,512,513
30067,511,510,514
30070,503,507,513
30074,511,506,511
30078,513,509,510
30083,512,512,510
30087,510,513,511
30091,509,508,511
30095,506,503,510
30099,509,505,509
30103,507,510,510
30107,506,513,511
30111,507,511,511
30115,508,507,514
30119,505,508,516
30124,508,508,516
30128,515,509,516
30132,516,508,514
30136,506,509,512
30140,503,508,512
30144,503,507,510
30148,512,509,515
30152,518,513,518
30156,515,512,513
30160,518,507,515
30164,509,509,517
30169,510,508,517
30173,511,506,517
30177,506,505,516
30181,507,511,515
30185,498,515,513
30189,511,516,514
30193,511,513,514
30197,510,511,515
30201,506,515,517
30205,511,520,517
30210,515,519,515
30214,511,517,516
30218,508,515,518
30222,509,515,520
30225,510,515,517
30228,509,510,517
30231,508,507,516
30234,508,510,516
30238,508,515,518
30242,510,515,519
30246,514,511,517
30251,513,510,512
30255,509,512,514
30259,513,517,519
30263,517,518,517
30267,516,515,516
30271,511,517,519
30275,506,518,520
30279,505,518,518
30283,512,515,516
30287,513,513,516
30291,501,512,515
30296,508,515,513
30300,511,519,513
30304,510,517,515
30308,508,511,517
30312,507,507,515
30316,506,511,513
30320,509,518,512
30324,514,520,512
30328,507,518,512
30332,501,517,516
30337,503,520,519
30341,511,522,516
30345,512,517,514
30349,506,511,516
30353,509,509,517
30357,510,512,518
30361,503,513,516
30365,512,512,513
30369,515,508,514
30373,515,507,516
30377,508,511,517
30382,502,514,517
30386,508,511,515
30389,510,509,516
30392,510,509,517
30395,511,512,518
30399,512,510,514
30403,512,508,512
30407,512,510,515
30411,511,515,515
30415,511,515,513
30419,518,512,510
30424,515,510,512
30428,504,511,514
30432,503,517,512
30436,508,519,508
30440,506,513,508
30444,508,506,508
30448,504,508,510
30452,505,509,509
30456,511,508,511
30460,512,507,510
30465,507,508,510
30469,497,514,511
30473,505,515,511
30477,511,513,509
30481,511,509,507
30485,507,506,506
30489,509,507,509
30493,510,512,512
30497,513,513,511
30501,512,509,512
30505,515,508,512
30510,512,509,513
30514,508,508,512
30518,511,508,512
30522,510,506,511
30526,510,508,510
30530,507,512,509
30534,513,514,513
30538,510,510,512
30542,510,504,510
30546,512,505,510
30551,500,507,509
30554,499,509,509
30557,506,508,510
30561,515,506,509
30565,509,509,510
30569,507,511,511
30573,512,508,512
30577,503,505,510
30581,512,502,509
30585,507,500,508
30589,502,502,510
30594,505,502,511
30598,503,501,510
30602,507,501,510
30606,512,504,510
30610,508,509,509
30614,508,509,509
30618,507,507,511
30622,508,506,511
30626,509,505,511
30630,508,508,510
30635,507,506,508
30639,509,502,508
30643,509,503,510
30647,507,508,509
30651,508,510,509
30655,512,506,510
30659,502,500,509
30663,506,499,510
30667,513,503,510
30671,508,504,509
30675,510,503,509
30680,508,500,510
30684,499,503,513
30688,507,508,512
30692,516,510,513
30696,512,507,513
30700,509,505,511
30704,508,507,514
30708,506,509,516
30712,506,510,517
30715,509,508,517
30718,512,503,514
30722,500,504,514
30726,499,507,514
30730,506,509,510
30734,509,510,510
30738,507,508,512
30742,507,507,512
30746,509,512,511
30750,502,514,511
30754,504,511,512
30758,514,508,512
30763,510,510,511
30767,505,515,512
30771,505,516,510
30775,506,512,508
30779,505,508,505
30783,503,509,508
30787,509,513,509
30791,508,510,509
30795,511,506,510
30799,509,509,511
30803,506,511,509
30808,505,512,509
30812,502,509,508
30816,508,507,506
30820,507,508,509
30824,509,510,508
30828,506,512,508
30832,508,510,507
30836,509,509,506
30840,505,513,505
30844,502,518,508
30849,501,519,508
30853,503,512,506
30857,500,509,508
30861,504,511,509
30865,505,515,506
30869,499,514,505
30873,505,509,505
30876,505,507,505
30879,503,509,504
30882,506,514,505
30885,507,516,504
30889,505,514,504
30894,512,512,504
30898,504,512,506
30902,504,516,508
30906,510,515,509
30910,512,510,511
30914,507,508,511
30918,496,513,512
30922,504,517,513
30926,510,512,511
30930,509,508,510
30935,506,508,510
30939,502,511,511
30943,506,515,511
30947,512,512,509
30951,511,510,508
30955,508,511,512
30959,506,516,514
30963,504,519,515
30967,506,511,512
30971,508,505,510
30976,501,503,511
30980,504,507,512
30984,508,513,511
30988,508,513,511
30992,509,508,508
30996,507,508,504
31000,501,513,508
31004,508,515,509
31008,509,513,510
31012,509,508,511
31016,514,508,507
31021,507,514,509
31025,509,516,510
31029,507,511,509
31033,504,510,509
31036,497,512,510
31039,505,513,511
31042,510,511,510
31045,513,506,506
31049,511,507,506
31053,509,513,507
31057,510,514,507
31062,514,509,507
31066,512,506,507
31070,506,506,508
31074,504,509,510
31078,505,512,511
31082,507,511,510
31086,509,505,512
31090,507,503,511
31094,508,507,508
31098,505,508,508
31102,508,505,507
31107,507,506,507
31111,504,507,508
31115,504,511,510
31119,502,509,509
31123,505,506,508
31127,511,507,509
31131,504,510,510
31135,509,512,509
31139,508,509,509
31143,507,504,507
31148,507,504,505
31152,505,509,505
31156,497,512,504
31160,508,508,505
31164,514,503,505
31168,511,505,508
31172,507,507,510
31176,508,511,512
31180,512,512,512
31184,507,508,509
31188,505,509,506
31193,513,510,506
31197,516,510,510
31200,510,508,509
31203,502,505,509
31206,503,504,511
31210,498,506,511
31214,505,506,508
31218,514,506,509
31222,513,505,509
31226,507,509,509
31230,505,512,508
31235,509,511,510
31239,509,505,509
31243,515,502,508
31247,515,504,510
31251,503,506,509
31255,510,509,509
31259,509,505,510
31263,509,501,507
31267,512,505,507
31271,509,510,509
31276,514,510,506
31280,509,505,502
31284,506,502,502
31288,503,505,503
31292,505,511,501
31296,502,510,501
31300,511,505,502
31304,504,503,505
31308,499,505,504
31312,504,505,504
31316,510,505,507
31321,513,504,510
31325,501,505,512
31329,507,506,512
31333,510,509,510
31337,512,510,509
31341,516,508,505
31345,512,506,508
31349,510,510,511
31353,509,513,511
31357,507,513,511
31362,507,510,512
31365,506,516,510
31368,506,518,510
31372,507,513,512
31376,508,507,511
31380,509,504,509
31384,506,509,507
31388,507,510,505
31392,505,508,507
31396,506,507,508
31400,503,506,508
31405,506,509,509
31409,501,511,507
31413,511,511,506
31417,516,505,507
31421,517,505,508
31425,506,508,510
31429,515,515,510
31433,508,517,509
31437,507,510,509
31441,506,504,508
31446,503,506,507
31450,507,510,508
31454,510,512,508
31458,503,511,507
31462,496,512,508
31466,501,512,509
31470,505,512,508
31474,509,510,506
31478,504,508,506
31482,506,508,508
31486,510,511,507
31491,503,514,508
31495,506,513,508
31499,506,505,508
31503,500,506,511
31507,502,506,510
31511,506,509,511
31515,506,513,511
31519,509,510,512
31523,506,505,509
31526,507,507,508
31529,508,512,510
31533,504,511,511
31537,508,508,510
31541,497,509,510
31545,496,513,509
31549,508,513,508
31553,507,511,510
31557,507,508,509
31561,503,510,509
31565,505,516,508
31569,513,516,510
31574,509,511,511
31578,505,511,512
31582,507,515,513
31586,508,515,514
31590,504,508,511
31594,510,504,509
31598,510,504,507
31602,511,510,507
31606,510,518,509
31610,508,517,507
31614,507,510,509
31619,508,505,513
31623,504,504,512
31627,501,509,510
31631,511,510,508
31635,509,508,508
31639,509,508,510
31643,505,509,509
31647,512,508,509
31651,508,501,510
31655,507,499,510
31660,512,505,511
31664,496,509,512
31668,507,511,510
31672,515,507,507
31676,518,507,508
31680,515,512,509
31684,513,518,511
31687,517,513,511
31690,516,506,508
31693,516,506,505
31696,518,510,507
31700,521,513,508
31705,508,512,506
31709,504,509,507
31713,505,511,508
31717,514,516,510
31721,504,519,511
31725,511,515,510
31729,511,511,509
31733,506,512,508
31737,505,515,509
31741,504,516,508
31746,509,516,506
31750,510,512,509
31754,502,511,513
31758,501,514,514
31762,510,510,510
31766,512,504,505
31770,504,503,503
31774,505,506,506
31778,504,509,510
31782,506,509,508
31787,506,506,509
31791,498,504,511
31795,503,507,513
31799,502,507,509
31803,513,505,509
31807,513,502,509
31811,506,501,511
31815,505,501,511
31819,519,504,511
31823,516,507,511
31827,504,507,511
31832,499,507,510
31836,499,509,509
31840,502,509,508
31844,498,506,510
31848,496,502,510
31851,498,502,509
31854,504,505,508
31857,504,510,510
31861,498,509,508
31865,505,503,507
31869,515,500,508
31874,519,505,510
31878,507,506,509
31882,512,503,508
31886,507,502,506
31890,506,505,508
31894,506,510,506
31898,499,513,503
31902,501,510,501
31906,505,505,502
31910,508,507,505
31915,509,511,508
31919,507,509,508
31923,508,505,507
31927,506,505,509
31931,502,508,510
31935,503,511,508
31939,510,514,506
31943,505,511,507
31947,507,508,510
31951,500,508,511
31955,509,510,512
31960,508,512,510
31964,505,509,507
31968,502,509,505
31972,504,511,505
31976,504,515,505
31980,500,514,506
31984,506,509,504
31988,501,507,503
31992,500,507,499
31996,510,510,499
32001,507,512,505
32005,506,509,506
32009,500,509,507
32012,502,509,508
32015,500,509,506
32018,503,507,502
32021,505,505,505
32025,505,508,508
32029,509,511,508
32033,511,508,506
32037,506,502,503
32041,507,502,503
32046,501,502,506
32050,504,505,510
32054,507,505,509
32058,509,501,505
32062,519,499,503
32066,509,505,503
32070,509,509,506
32074,508,507,508
32078,509,501,507
32082,501,502,506
32087,501,508,503
32091,503,512,508
32095,510,508,507
32099,508,506,508
32103,497,507,508
32107,501,509,506
32111,502,511,504
32115,508,508,503
32119,510,504,505
32123,505,506,509
32128,510,511,507
32132,514,513,506
32136,508,512,505
32140,510,507,507
32144,507,507,511
32148,508,510,514
32152,509,513,513
32156,504,513,511
32160,510,509,509
32164,507,510,510
32168,506,511,509
32173,509,512,510
32177,509,511,510
32180,509,509,511
32183,506,511,510
32186,504,513,511
32190,504,514,509
32194,506,512,506
32198,517,509,504
32202,512,510,505
32206,513,514,506
32210,505,515,506
32215,498,511,505
32219,500,511,508
32223,506,515,506
32227,511,515,506
32231,517,512,509
32235,516,504,511
32239,512,503,514
32243,501,507,512
32247,497,509,509
32251,508,509,511
32256,503,502,509
32260,508,499,505
32264,510,504,503
32268,511,506,503
32272,510,507,507
32276,499,505,508
32280,502,506,509
32284,500,507,508
32288,502,508,506
32292,515,507,505
32296,511,504,506
32301,507,506,509
32305,503,512,510
32309,507,512,509
32313,508,508,504
32317,500,505,504
32321,501,508,509
32325,501,508,509
32329,513,508,508
32333,513,506,506
32337,510,506,504
32340,503,510,508
32344,507,513,513
32347,513,510,506
32351,506,508,505
32355,506,510,506
32359,501,515,509
32363,505,517,510
32367,505,511,507
32371,508,507,506
32375,508,510,506
32379,509,513,505
32384,511,514,507
32388,508,510,508
32392,507,504,507
32396,503,504,504
32400,506,508,506
32404,504,511,509
32408,511,509,509
32412,515,505,510
32416,504,506,512
32420,501,512,512
32424,504,514,515
32429,507,512,513
32433,517,509,513
32437,509,508,517
32441,505,511,519
32445,509,510,516
32449,513,506,511
32453,509,505,511
32457,501,508,512
32461,505,512,512
32465,504,515,514
32470,511,509,512
32474,502,505,512
32478,502,505,513
32482,502,509,513
32486,509,512,513
32490,512,506,511
32494,507,505,510
32498,510,509,508
32502,505,513,507
32505,514,514,508
32508,508,512,507
32512,512,510,506
32516,505,510,506
32520,508,509,508
32524,505,508,507
32528,507,505,507
32532,511,507,507
32536,504,512,505
32540,512,513,503
32544,508,509,505
32548,510,506,508
32552,513,505,510
32557,505,507,509
32561,502,510,507
32565,515,506,505
32569,516,507,506
32573,505,507,506
32577,512,509,507
32581,507,508,507
32585,501,506,502
32589,501,506,506
32593,501,511,508
32598,510,514,509
32602,513,511,507
32606,508,509,508
32610,511,509,509
32614,512,511,511
32618,511,513,509
32622,516,512,509
32626,520,506,507
32630,504,508,507
32634,505,510,506
32638,510,509,503
32643,512,507,503
32647,507,508,503
32651,509,508,504
32655,504,506,506
32659,501,506,506
32663,507,502,503
32666,509,499,504
32669,512,504,505
32672,506,512,505
32676,507,514,505
32680,514,510,503
32685,503,507,505
32689,501,508,507
32693,508,507,508
32697,517,508,507
32701,517,508,505
32705,511,509,505
32709,506,509,507
32713,509,512,507
32717,509,511,505
32721,506,509,505
32726,506,510,505
32730,505,509,506
32734,506,511,506
32738,512,508,505
32742,515,505,504
32746,501,507,504
32750,503,512,504
32754,510,514,503
32758,515,513,504
32762,509,511,505
32766,512,511,507
32771,509,511,509
32775,513,514,510
32779,511,512,509
32783,509,509,507
32787,508,512,507
32791,511,515,508
32795,521,514,510
32799,511,509,512
32803,511,505,512
32807,508,504,509
32812,507,508,506
32816,515,511,506
32820,508,512,508
32824,511,510,510
32827,508,507,511
32830,512,509,510
32833,504,509,511
32836,504,507,511
32840,507,505,508
32844,508,503,507
32848,503,507,508
32852,506,510,510
32857,511,508,509
32861,507,507,506
32865,505,511,506
32869,515,513,508
32873,512,510,510
32877,514,506,511
32881,507,507,512
32885,508,510,512
32889,518,510,510
32893,516,508,507
32898,506,505,508
32902,499,503,510
32906,507,506,511
32910,514,510,512
32914,512,510,509
32918,513,505,509
32922,515,502,510
32926,519,504,511
32930,515,506,511
32934,506,505,511
32939,500,506,511
32943,499,508,514
32947,504,514,513
32951,509,515,509
32955,513,509,509
32959,510,506,513
32963,516,507,514
32967,509,508,513
32971,508,512,512
32975,511,511,511
32979,507,510,512
32984,503,510,516
32988,506,512,516
32991,517,511,514
32994,518,507,513
32997,512,510,513
33001,513,514,512
33005,509,519,510
33009,513,520,507
33013,508,515,510
33017,514,511,508
33021,509,513,507
33026,515,518,508
33030,511,517,507
33034,513,513,506
33038,508,511,505
33042,508,512,504
33046,506,508,506
33050,511,505,506
33054,513,506,508
33058,518,508,511
33062,510,509,509
33067,509,510,508
33071,515,504,510
33075,513,501,511
33079,510,504,510
33083,520,506,511
33087,512,510,511
33091,512,507,508
33095,508,504,507
33099,513,506,509
33103,517,510,507
33107,523,511,509
33112,517,505,509
33116,512,500,509
33120,513,503,510
33124,514,507,507
33128,514,506,505
33132,518,504,504
33136,519,506,504
33140,510,507,505
33144,510,511,508
33148,514,509,509
33153,517,506,507
33156,509,505,508
33159,501,506,511
33163,511,509,512
33167,512,506,511
33171,513,502,509
33175,514,502,507
33179,510,506,508
33183,513,508,507
33187,517,505,506
33191,512,503,506
33196,507,503,509
33200,508,507,509
33204,508,513,510
33208,514,513,509
33212,506,509,509
33216,502,508,508
33220,511,512,506
33224,515,510,507
33228,509,506,507
33232,508,503,506
33236,510,504,509
33241,508,506,509
33245,518,510,508
33249,512,508,507
33253,500,506,505
33257,499,507,506
33261,509,508,506
33265,505,509,506
33269,508,508,505
33273,502,507,504
33277,504,509,504
33282,509,513,505
33286,512,512,507
33290,506,509,506
33294,502,508,507
33298,504,507,508
33302,508,508,511
33306,506,505,512
33310,507,503,511
33314,508,505,511
33317,504,508,511
33320,511,510,509
33324,515,510,506
33328,514,507,507
33332,508,505,509
33336,503,508,511
33340,510,509,508
33344,511,508,506
33348,503,504,506
33352,498,507,508
33356,502,513,511
33360,505,516,511
33364,508,514,510
33369,500,509,507
33373,504,508,507
33377,506,512,510
33381,506,514,511
33385,509,512,511
33389,509,511,512
33393,505,511,512
33397,507,512,511
33401,507,511,511
33405,506,508,509
33410,505,507,507
33414,501,510,506
33418,508,513,507
33422,502,511,506
33426,508,508,505
33430,504,506,506
33434,506,508,505
33438,512,512,505
33442,509,513,506
33446,506,508,505
33451,507,507,507
33455,502,510,507
33459,505,513,505
33463,508,512,504
33467,509,508,505
33471,507,509,510
33475,513,512,512
33478,508,513,512
33481,508,507,509
33484,505,500,506
33487,503,504,508
33491,506,510,511
33496,507,512,511
33500,515,506,509
33504,514,506,509
33508,501,508,510
33512,504,512,510
33516,507,511,511
33520,507,506,510
33524,511,503,511
33528,509,506,512
33532,506,510,510
33537,505,509,506
33541,505,507,505
33545,505,508,508
33549,502,509,510
33553,505,510,509
33557,504,509,509
33561,506,504,508
33565,502,504,506
33569,510,509,509
33573,511,510,512
33577,509,510,512
33582,503,508,511
33586,502,509,511
33590,504,512,511
33594,513,514,511
33598,502,511,510
33602,503,508,509
33606,508,509,510
33610,509,512,510
33614,511,514,511
33618,511,511,511
33623,503,510,511
33627,506,512,511
33631,510,516,511
33635,510,517,512
33638,509,509,509
33641,514,507,509
33644,506,507,508
33647,505,511,509
33651,507,512,511
33655,505,508,512
33659,508,506,512
33664,512,508,513
33668,514,512,511
33672,512,511,510
33676,506,508,509
33680,505,507,508
33684,503,509,506
33688,505,511,508
33692,512,510,508
33696,511,507,509
33700,508,505,509
33704,502,508,508
33709,509,513,510
33713,515,508,510
33717,512,500,511
33721,500,502,511
33725,500,510,512
33729,502,515,514
33733,502,510,514
33737,507,508,512
33741,503,508,509
33745,507,507,514
33750,508,510,516
33754,506,508,515
33758,511,504,517
33762,511,506,517
33766,502,510,516
33770,503,512,514
33774,506,509,511
33778,509,507,513
33782,504,510,513
33786,507,512,515
33790,513,510,514
33795,498,506,511
33799,502,508,513
33802,511,512,513
33805,504,515,513
33808,512,511,510
33812,506,506,508
33816,503,508,509
33820,503,515,510
33824,505,519,511
33828,501,514,509
33832,502,506,506
33837,501,505,505
33841,503,509,506
33845,506,509,508
33849,512,505,510
33853,507,502,510
33857,502,503,511
33861,505,509,509
33865,516,512,509
33869,508,512,510
33873,502,508,510
33878,510,508,511
33882,513,514,511
33886,515,514,509
33890,506,508,505
33894,508,505,505
33898,506,508,505
33902,501,513,506
33906,512,515,508
33910,514,510,508
33914,503,508,510
33918,500,509,510
33923,499,510,509
33927,501,510,507
33931,512,506,508
33935,503,506,508
33939,506,509,508
33943,508,513,508
33947,508,510,508
33951,508,510,509
33955,511,513,509
33959,506,515,510
33964,500,516,510
33967,498,513,510
33970,506,509,509
33974,503,511,508
33978,505,517,509
33982,501,517,509
33986,506,511,507
33990,502,510,506
33994,500,513,509
33998,506,513,510
34002,511,511,507
34007,510,507,507
34011,504,505,509
34015,500,508,511
34019,511,512,512
34023,511,515,510
34027,506,511,510
34031,501,508,511
34035,500,507,511
34039,504,508,512
34043,501,507,513
34048,501,507,514
34052,509,511,515
34056,518,512,516
34060,498,511,515
34064,501,511,513
34068,509,510,513
34072,508,511,513
34076,504,513,513
34080,506,513,511
34084,502,509,510
34088,504,503,510
34093,500,503,509
34097,499,510,507
34101,503,515,505
34105,504,512,502
34109,501,509,500
34113,501,509,504
34117,504,510,506
34121,501,509,508
34125,498,506,507
34128,502,506,507
34131,508,509,504
34135,511,511,508
34139,501,509,510
34143,508,508,508
34147,505,506,507
34151,507,506,507
34155,501,510,508
34159,502,508,509
34163,510,503,505
34167,508,503,502
34171,507,508,504
34176,509,512,509
34180,505,513,510
34184,508,507,507
34188,501,505,508
34192,503,508,508
34196,509,511,508
34200,509,511,504
34204,508,507,505
34208,510,507,510
34212,507,505,509
34216,506,507,504
34221,503,505,499
34225,503,503,505
34229,511,508,516
34233,503,514,514
34237,504,514,518
34241,501,509,515
34245,492,508,512
34249,500,514,511
34253,513,520,512
34257,500,513,498
34262,503,516,498
34266,507,520,506
34270,500,515,518
34274,499,514,523
34278,502,512,518
34282,514,511,515
34286,509,503,505
34289,502,499,495
34292,503,513,502
34295,507,512,503
34298,507,517,519
34302,512,516,518
34307,507,538,518
34311,506,533,516
34315,508,512,479
34319,505,480,465
34323,510,493,514
34327,512,522,516
34331,502,527,504
34335,501,542,494
34339,501,527,482
34343,500,501,475
34348,501,501,503
34352,506,513,523
34356,510,503,533
34360,510,492,524
34364,511,475,508
34368,496,503,486
34372,505,545,484
34376,507,497,502
34380,515,507,538
34384,512,492,547
34388,512,508,563
34393,512,486,547
34397,510,491,545
34401,501,506,544
34405,504,502,530
34409,502,512,532
34413,507,510,523
34417,510,498,519
34421,507,522,540
34425,502,505,525
34429,507,506,528
34434,509,489,523
34438,504,509,560
34442,516,499,549
34446,512,488,542
34450,502,507,534
34453,496,511,542
34456,504,522,561
34459,503,511,557
34463,506,503,538
34467,505,522,550
34471,504,511,548
34476,510,500,553
34480,509,500,533
34484,511,495,527
34488,514,490,534
34492,514,493,532
34496,501,505,538
34500,504,509,545
34504,504,493,537
34508,508,521,556
34512,501,510,547
34516,502,488,535
34521,509,485,527
34525,513,495,530
34529,508,491,523
34533,512,503,532
34537,504,507,543
34541,503,504,536
34545,505,524,530
34549,515,492,515
34553,512,472,526
34557,505,516,556
34562,506,545,553
34566,506,532,532
34570,508,492,531
34574,517,489,532
34578,505,496,499
34582,504,493,500
34586,502,489,506
34590,498,501,508
34594,507,504,524
34598,508,506,547
34603,505,534,570
34607,505,550,525
34611,511,494,494
34614,506,462,511
34617,509,461,500
34620,505,483,506
34624,507,547,579
34628,516,559,567
34632,514,515,494
34636,508,488,502
34640,509,534,528
34644,519,550,529
34649,510,491,489
34653,507,505,495
34657,506,537,521
34661,507,545,564
34665,515,555,560
34669,518,514,522
34673,527,510,505
34677,516,514,528
34681,500,458,480
34685,521,483,449
34690,528,480,471
34694,507,501,499
34698,520,489,442
34702,509,529,488
34706,498,544,544
34710,500,551,583
34714,507,547,570
34718,518,510,534
34722,531,496,468
34726,526,480,454
34731,530,476,476
34735,527,550,512
34739,509,535,502
34743,524,530,548
34747,509,519,535
34751,543,502,484
34755,519,510,444
34759,536,515,435
34763,530,534,453
34767,525,510,485
34771,539,471,483
34776,562,499,486
34779,540,478,502
34782,540,506,535
34785,542,518,496
34789,517,493,480
34793,496,512,503
34797,504,510,461
34801,495,496,454
34805,525,500,480
34809,533,538,539
34813,544,541,582
34818,562,541,553
34822,525,464,439
34826,501,470,445
34830,522,504,485
34834,545,534,490
34838,538,515,483
34842,491,529,476
34846,478,486,461
34850,569,475,470
34854,586,506,498
34859,556,579,553
34863,474,600,553
34867,508,496,476
34871,490,502,467
34875,517,464,470
34879,555,545,520
34883,593,553,490
34887,506,442,434
34891,486,476,452
34895,501,532,521
34899,500,616,556
34904,550,488,469
34908,537,432,454
34912,505,519,508
34916,457,524,518
34920,488,545,530
34924,522,547,515
34928,498,519,472
34932,539,517,483
34936,527,571,519
34939,468,503,484
34942,440,473,455
34946,475,544,505
34950,539,505,470
34954,582,466,461
34958,552,468,463
34962,451,510,505
34966,472,479,479
34970,505,538,474
34974,508,544,468
34978,506,499,488
34982,496,565,551
34987,489,590,560
34991,485,517,496
34995,526,492,491
34999,499,480,456
35003,520,455,476
35007,498,531,548
35011,495,503,506
35015,481,477,490
35019,529,520,496
35023,537,575,567
35027,467,527,510
35032,501,521,479
35036,519,534,473
35040,531,509,491
35044,510,488,475
35048,466,477,442
35052,492,492,476
35056,506,492,512
35060,468,564,528
35064,474,591,599
35068,511,507,518
35073,511,486,454
35077,509,486,460
35081,554,493,490
35085,479,498,490
35089,483,503,521
35093,455,511,503
35097,489,521,489
35100,509,518,520
35103,479,531,531
35106,499,503,495
35109,525,504,485
35113,520,525,500
35118,490,563,580
35122,519,567,600
35126,546,510,499
35130,469,481,439
35134,488,454,427
35138,539,467,447
35142,476,493,502
35146,488,539,486
35150,478,526,468
35154,512,514,494
35159,533,511,528
35163,456,480,518
35167,475,492,497
35171,468,507,517
35175,510,519,538
35179,511,505,483
35183,481,529,492
35187,482,531,520
35191,505,525,528
35195,519,553,517
35200,509,537,536
35204,453,514,570
35208,477,533,525
35212,494,490,484
35216,485,504,486
35220,519,507,487
35224,522,541,514
35228,501,504,502
35232,478,489,484
35236,490,481,490
35240,491,513,491
35245,508,468,472
35249,540,492,502
35253,506,485,504
35257,473,475,495
35261,481,515,519
35264,477,542,511
35267,485,584,569
35270,499,541,533
35274,515,489,488
35278,496,512,504
35282,495,572,610
35287,478,572,600
35291,469,461,467
35295,501,457,446
35299,497,492,440
35303,489,499,450
35307,509,484,471
35311,493,505,481
35315,468,521,491
35319,483,499,516
35323,504,504,510
35328,478,533,497
35332,478,500,530
35336,503,542,561
35340,509,515,531
35344,500,505,489
35348,506,506,489
35352,495,533,562
35356,505,555,567
35360,468,514,524
35364,483,460,470
35368,511,502,473
35373,530,461,458
35377,489,501,474
35381,475,517,497
35385,503,499,511
35389,519,525,519
35393,519,573,502
35397,484,497,487
35401,498,462,474
35405,498,493,503
35409,497,481,493
35414,476,498,518
35418,457,545,548
35422,477,552,578
35425,502,490,530
35428,490,506,516
35431,512,527,524
35435,495,541,545
35439,499,479,476
35443,495,520,518
35447,483,569,540
35451,504,461,472
35456,509,443,449
35460,491,507,498
35464,503,539,531
35468,493,500,488
35472,509,469,449
35476,511,484,477
35480,513,535,523
35484,503,563,509
35488,488,521,503
35492,504,485,540
35496,508,504,550
35501,527,517,506
35505,494,530,490
35509,490,496,486
35513,525,525,567
35517,522,604,637
35521,531,563,580
35525,482,489,446
35529,475,443,414
35533,487,477,476
35537,495,518,515
35542,525,564,481
35546,513,517,479
35550,494,472,462
35554,494,471,457
35558,508,471,504
35562,543,521,574
35566,524,526,549
35570,532,517,498
35574,516,455,480
35578,478,493,515
35582,485,537,522
35587,523,531,533
35590,519,514,492
35593,507,506,467
35596,510,550,490
35600,536,532,526
35604,527,457,491
35608,515,464,506
35612,499,539,541
35616,480,564,551
35620,474,524,505
35624,522,492,513
35629,538,491,505
35633,523,491,480
35637,513,455,454
35641,504,474,509
35645,513,551,572
35649,500,529,488
35653,516,467,428
35657,523,520,530
35661,521,554,575
35665,515,528,545
35670,505,473,478
35674,531,509,532
35678,544,532,508
35682,557,506,461
35686,540,535,493
35690,531,550,501
35694,527,507,484
35698,507,487,527
35702,522,513,534
35706,522,498,507
35710,542,526,580
35715,515,549,552
35719,511,485,466
35723,523,453,473
35727,537,453,484
35731,525,472,495
35735,532,469,480
35739,550,536,522
35743,558,557,559
35747,540,523,488
35750,531,543,476
35753,529,512,476
35757,530,462,476
35761,512,480,491
35765,557,468,495
35769,564,539,547
35773,522,589,571
35777,539,489,493
35781,538,486,482
35785,545,457,471
35789,531,499,478
35793,508,525,512
35798,507,516,548
35802,511,542,582
35806,520,541,564
35810,509,458,443
35814,489,467,456
35818,500,529,553
35822,501,554,500
35826,527,521,490
35830,536,525,462
35834,513,413,419
35838,502,482,498
35843,505,583,588
35847,501,561,533
35851,502,478,515
35855,491,485,513
35859,488,451,469
35863,494,461,482
35867,495,490,474
35871,519,499,501
35875,516,550,585
35879,495,539,564
35884,495,503,513
35888,514,519,463
35892,505,535,514
35896,488,538,497
35900,474,528,525
35904,486,528,533
35908,471,535,507
35911,476,465,458
35914,481,478,467
35917,474,484,476
35920,482,471,483
35924,500,492,494
35929,508,538,509
35933,483,563,535
35937,479,512,510
35941,500,497,534
35945,498,525,523
35949,475,501,518
35953,482,516,510
35957,469,504,521
35961,494,498,543
35965,508,516,526
35970,486,534,501
35974,469,514,479
35978,477,503,506
35982,490,571,561
35986,507,550,521
35990,488,503,496
35994,486,471,486
35998,490,503,480
36002,481,460,453
36006,488,458,469
36011,486,481,492
36015,483,506,492
36019,505,470,517
36023,498,583,606
36027,495,530,534
36031,500,513,499
36035,490,499,499
36039,508,488,509
36043,486,527,522
36047,484,492,489
36051,503,495,482
36056,505,504,496
36060,500,509,543
36064,532,564,566
36068,519,528,506
36072,499,482,432
36075,489,482,474
36078,493,491,520
36081,498,515,521
36085,501,491,500
36089,512,498,484
36093,511,491,510
36098,498,521,512
36102,525,555,563
36106,512,542,553
36110,500,481,484
36114,500,468,465
36118,512,490,498
36122,511,502,506
36126,500,518,504
36130,498,546,504
36134,505,535,485
36139,511,507,529
36143,510,499,556
36147,537,518,569
36151,525,540,524
36155,502,478,477
36159,491,473,468
36163,502,492,456
36167,510,520,498
36171,514,525,516
36175,508,521,574
36179,514,545,555
36184,515,534,474
36188,510,505,486
36192,506,489,500
36196,499,532,512
36200,515,550,501
36204,528,503,490
36208,526,481,511
36212,502,503,520
36216,497,510,529
36220,507,493,510
36225,504,507,505
36229,507,508,521
36233,517,502,516
36237,531,527,497
36240,531,518,503
36243,525,498,491
36247,499,506,505
36251,509,530,509
36255,516,530,502
36259,489,530,557
36263,496,533,542
36268,495,475,496
36272,499,466,473
36276,506,513,489
36280,518,557,500
36284,524,502,506
36288,509,461,491
36292,500,488,497
36296,510,521,522
36300,497,517,522
36304,513,526,552
36308,489,549,558
36313,485,503,497
36317,491,497,506
36321,508,536,490
36325,530,480,483
36329,504,466,502
36333,478,482,501
36337,511,481,510
36341,519,495,519
36345,503,562,570
36349,529,569,516
36354,500,519,496
36358,482,493,494
36362,494,473,491
36366,500,509,518
36370,496,503,514
36374,503,526,516
36378,498,511,504
36382,497,509,487
36386,516,514,506
36390,512,487,502
36395,500,515,540
36399,504,545,537
36402,521,532,517
36405,524,516,568
36408,493,504,535
36412,491,498,483
36416,489,465,451
36420,504,495,497
36424,502,512,517
36428,501,473,473
36432,513,482,483
36436,512,493,475
36441,502,504,485
36445,496,525,514
36449,499,566,534
36453,494,533,516
36457,492,501,518
36461,512,524,553
36465,515,541,524
36469,513,480,478
36473,522,466,485
36477,495,494,493
36482,492,483,464
36486,506,485,473
36490,509,515,522
36494,512,522,523
36498,504,545,537
36502,496,499,533
36506,497,523,534
36510,502,506,516
36514,511,487,502
36518,509,488,481
36523,497,533,494
36527,505,535,519
36531,497,506,512
36535,508,502,487
36539,525,506,519
36543,508,474,493
36547,498,489,525
36551,517,525,528
36555,528,491,498
36559,501,519,474
36562,486,529,501
36566,490,481,493
36569,501,511,531
36572,518,505,532
36576,519,497,524
36580,521,525,525
36584,508,504,506
36588,533,487,497
36592,505,507,502
36596,492,522,524
36600,503,517,486
36604,516,531,538
36609,511,512,521
36613,502,503,478
36617,516,481,478
36621,496,520,502
36625,496,530,544
36629,506,528,552
36633,527,565,560
36637,530,525,503
36641,502,441,471
36645,506,505,479
36649,507,529,486
36654,518,493,489
36658,506,502,528
36662,505,474,520
36666,508,466,474
36670,515,500,513
36674,527,518,547
36678,509,550,562
36682,493,522,524
36686,507,467,467
36690,516,504,505
36695,497,534,517
36699,520,510,491
36703,512,518,496
36707,519,497,492
36711,513,533,513
36715,518,503,481
36719,516,506,488
36722,494,504,509
36725,494,480,523
36728,514,508,520
36731,511,523,527
36736,510,488,515
36740,535,513,543
36744,510,556,558
36748,511,473,473
36752,532,488,470
36756,517,468,537
36760,518,537,577
36764,507,524,537
36768,511,451,446
36772,509,472,415
36776,505,536,525
36781,505,513,534
36785,507,520,521
36789,505,532,530
36793,511,513,510
36797,525,500,466
36801,540,505,468
36805,528,503,499
36809,519,505,496
36813,511,532,523
36817,498,538,531
36822,495,495,535
36826,506,520,506
36830,505,529,538
36834,516,547,555
36838,507,488,485
36842,510,493,492
36846,509,517,508
36850,527,493,490
36854,510,526,538
36858,522,499,522
36862,522,523,456
36867,546,537,487
36871,502,529,514
36875,496,483,507
36879,505,496,499
36883,524,559,556
36886,532,538,565
36889,511,485,502
36892,489,440,471
36896,491,459,499
36900,506,514,507
36904,529,525,517
36909,507,521,526
36913,507,511,484
36917,507,472,475
36921,505,518,527
36925,509,550,533
36929,518,492,488
36933,511,462,476
36937,511,513,491
36941,515,589,565
36945,522,574,613
36950,514,492,494
36954,504,479,480
36958,510,467,448
36962,505,493,494
36966,501,515,495
36970,494,507,487
36974,511,519,524
36978,527,477,514
36982,513,436,494
36986,517,494,494
36990,514,538,481
36995,499,543,492
36999,496,508,515
37003,508,469,520
37007,509,489,556
37011,516,567,557
37015,500,522,478
37019,525,511,470
37023,519,501,480
37027,499,525,530
37031,514,578,576
37036,504,551,505
37040,498,503,486
37044,495,456,457
37048,505,443,478
37051,496,480,510
37054,499,460,497
37058,521,495,513
37062,527,568,560
37066,532,539,538
37070,499,496,477
37074,512,517,486
37079,501,481,475
37083,506,532,517
37087,520,540,528
37091,509,525,507
37095,506,500,494
37099,504,516,528
37103,507,513,519
37107,511,539,558
37111,523,465,482
37115,491,500,463
37120,492,531,471
37124,498,504,474
37128,509,528,541
37132,525,530,528
37136,528,501,506
37140,512,494,497
37144,515,486,473
37148,505,482,501
37152,498,525,550
37156,511,552,565
37160,525,548,552
37165,519,496,487
37169,491,498,481
37173,509,530,491
37177,509,508,486
37181,517,471,461
37185,515,531,530
37189,503,551,524
37193,499,515,523
37197,493,522,523
37201,492,528,573
37206,515,485,489
37210,517,487,463
37213,501,490,471
37216,496,487,500
37219,498,486,543
37223,499,499,522
37227,514,496,495
37231,507,501,489
37235,526,496,480
37239,522,512,511
37243,511,525,529
37248,498,502,503
37252,509,529,524
37256,508,547,560
37260,512,520,538
37264,499,455,487
37268,504,516,528
37272,500,562,525
37276,504,509,493
37280,503,479,507
37284,519,484,486
37288,518,511,499
37293,526,524,546
37297,495,499,516
37301,509,483,494
37305,504,482,485
37309,492,499,468
37313,498,509,518
37317,516,521,552
37321,524,569,566
37325,512,540,533
37329,497,486,527
37334,509,470,475
37338,499,468,460
37342,516,502,467
37346,512,525,507
37350,505,528,501
37354,500,487,496
37358,504,503,526
37362,516,514,499
37366,518,506,483
37370,507,540,512
37373,504,515,528
37377,509,505,512
37380,513,496,513
37383,524,527,517
37387,509,508,531
37391,501,488,511
37395,494,460,493
37399,496,513,518
37403,509,532,530
37407,524,497,486
37411,508,509,487
37415,511,503,463
37420,510,537,522
37424,503,532,540
37428,503,496,503
37432,505,488,485
37436,513,494,510
37440,510,500,496
37444,512,540,538
37448,507,538,519
37452,507,490,530
37456,508,515,530
37460,499,501,488
37465,508,502,480
37469,505,519,521
37473,510,482,495
37477,514,478,499
37481,514,506,494
37485,515,488,485
37489,518,535,527
37493,507,527,519
37497,516,504,495
37501,518,493,506
37506,511,510,475
37510,511,553,524
37514,506,528,526
37518,501,504,517
37522,503,486,509
37526,528,493,491
37530,510,533,463
37534,497,532,489
37537,502,499,522
37540,508,501,544
37543,511,509,514
37548,513,482,480
37552,505,495,490
37556,506,490,514
37560,511,509,511
37564,515,504,500
37568,513,497,507
37572,514,499,472
37576,522,552,497
37580,501,510,534
37584,507,496,528
37588,507,498,504
37593,505,519,516
37597,504,487,489
37601,511,518,510
37605,520,521,496
37609,512,500,502
37613,505,477,506
37617,513,480,504
37621,532,486,494
37625,510,504,482
37629,497,517,516
37634,517,536,560
37638,517,528,531
37642,509,499,508
37646,513,463,467
37650,515,500,478
37654,507,514,504
37658,509,483,500
37662,528,520,557
37666,512,563,543
37670,502,519,479
37675,511,470,467
37679,512,490,506
37683,501,491,493
37687,498,487,495
37691,504,528,502
37695,513,509,511
37698,522,482,508
37701,520,512,521
37704,504,555,515
37708,509,524,524
37712,519,503,500
37716,521,501,514
37721,514,493,512
37725,509,507,511
37729,504,509,496
37733,524,528,506
37737,521,498,536
37741,519,546,539
37745,501,498,504
37749,502,499,488
37753,503,521,508
37757,511,514,519
37762,523,502,490
37766,501,519,495
37770,496,522,504
37774,498,502,524
37778,513,516,514
37782,524,487,487
37786,519,474,467
37790,526,481,494
37794,508,495,488
37798,514,555,531
37803,512,566,536
37807,513,537,504
37811,507,482,515
37815,510,493,535
37819,516,492,535
37823,519,549,589
37827,522,516,504
37831,517,482,439
37835,513,485,463
37839,520,525,507
37843,509,514,508
37848,512,506,493
37852,508,495,481
37856,501,472,475
37860,500,527,512
37863,500,517,484
37866,510,508,500
37869,530,506,529
37873,508,507,522
37877,506,517,533
37881,513,537,539
37885,510,569,531
37890,492,525,496
37894,502,467,476
37898,507,454,465
37902,510,483,486
37906,519,522,535
37910,523,575,561
37914,527,561,539
37918,502,516,499
37922,495,484,476
37926,505,475,469
37931,511,499,509
37935,510,500,516
37939,502,524,506
37943,516,508,528
37947,510,505,512
37951,494,512,496
37955,490,521,515
37959,501,544,541
37963,531,512,522
37967,504,484,502
37971,500,481,497
37976,501,475,493
37980,503,498,503
37984,503,505,518
37988,498,502,521
37992,497,543,552
37996,503,555,543
38000,526,515,488
38004,522,509,497
38008,498,497,515
38012,499,494,501
38017,512,509,512
38021,501,517,518
38024,494,499,513
38027,511,550,531
38030,527,525,528
38034,506,480,485
38038,498,482,486
38042,490,464,506
38046,504,460,504
38050,518,528,528
38054,497,513,508
38059,500,512,507
38063,494,523,557
38067,499,525,575
38071,508,507,504
38075,505,516,459
38079,506,553,518
38083,511,498,528
38087,497,508,561
38091,506,554,573
38095,502,504,513
38099,506,464,461
38104,502,503,454
38108,502,526,479
38112,512,533,524
38116,516,492,533
38120,512,489,539
38124,506,498,521
38128,515,480,511
38132,509,486,512
38136,505,518,509
38140,508,556,518
38145,507,505,526
38149,509,502,550
38153,516,543,525
38157,506,517,498
38161,494,494,504
38165,498,526,487
38169,507,513,500
38173,509,500,520
38177,514,507,512
38181,510,498,506
38184,511,490,521
38188,507,533,573
38191,504,505,499
38194,509,471,461
38198,523,489,457
38202,517,525,501
38206,513,523,512
38210,514,510,501
38214,505,530,530
38218,503,533,511
38222,498,520,535
38226,509,481,508
38231,506,488,518
38235,511,505,512
38239,502,503,513
38243,502,510,501
38247,503,524,487
38251,510,555,479
38255,505,501,495
38259,513,495,497
38263,522,513,534
38267,512,539,543
38272,504,492,503
38276,512,470,483
38280,502,509,514
38284,506,512,527
38288,522,519,533
38292,508,490,498
38296,508,510,522
38300,508,552,519
38304,521,537,536
38308,501,483,517
38312,506,487,494
38317,502,468,472
38321,500,483,487
38325,503,509,522
38329,499,458,477
38333,503,507,513
38337,520,562,551
38341,516,566,528
38345,507,509,493
38348,505,496,491
38351,498,509,478
38354,488,514,493
38359,494,520,535
38363,500,498,535
38367,509,486,515
38371,513,485,494
38375,523,503,509
38379,498,526,510
38383,503,527,519
38387,510,489,498
38391,507,485,501
38395,503,516,534
38400,496,544,540
38404,515,487,485
38408,507,475,463
38412,499,507,473
38416,497,547,519
38420,499,492,518
38424,505,482,517
38428,520,515,538
38432,509,530,527
38436,502,515,523
38440,504,505,533
38445,510,515,494
38449,504,522,486
38453,499,528,510
38457,503,468,492
38461,511,485,520
38465,505,470,513
38469,507,491,513
38473,507,522,497
38477,507,549,529
38481,512,586,586
38486,517,569,546
38490,507,469,466
38494,504,482,429
38498,497,497,487
38502,508,495,510
38506,497,491,495
38509,496,524,531
38512,497,558,551
38515,500,519,524
38518,510,484,506
38522,518,485,488
38526,496,492,493
38531,492,532,521
38535,496,525,507
38539,519,504,518
38543,521,489,510
38547,507,500,499
38551,509,506,486
38555,498,526,524
38559,507,553,521
38563,505,540,517
38567,499,551,524
38572,498,488,478
38576,496,484,504
38580,516,497,500
38584,503,484,504
38588,496,505,505
38592,507,548,524
38596,508,517,521
38600,511,530,523
38604,521,524,507
38608,509,493,492
38612,505,494,503
38617,499,520,522
38621,509,515,502
38625,505,524,493
38629,512,536,545
38633,510,534,571
38637,504,485,510
38641,500,495,503
38645,518,503,515
38649,503,463,523
38653,516,477,519
38658,514,524,517
38662,515,535,508
38666,502,517,519
38670,493,509,510
38673,497,496,499
38676,520,501,482
38679,506,529,495
38683,503,498,483
38687,510,490,504
38691,516,509,541
38695,519,552,567
38700,518,519,488
38704,510,452,484
38708,509,472,517
38712,511,482,502
38716,501,503,504
38720,494,534,519
38724,515,526,509
38728,504,539,517
38732,513,518,535
38736,512,498,522
38740,506,510,517
38745,514,537,535
38749,508,512,529
38753,516,508,518
38757,508,481,490
38761,499,481,484
38765,507,531,493
38769,508,516,497
38773,507,493,511
38777,507,509,553
38781,499,514,546
38786,501,503,505
38790,510,500,501
38794,513,503,502
38798,503,511,499
38802,498,535,499
38806,511,542,553
38810,504,519,544
38814,517,498,511
38818,521,505,498
38822,501,525,523
38827,501,495,497
38831,503,487,485
38835,498,504,519
38838,500,533,530
38841,500,537,548
38845,506,498,502
38849,507,509,487
38853,513,492,498
38857,506,483,500
38861,521,486,502
38865,511,492,495
38870,504,505,493
38874,505,503,478
38878,510,518,515
38882,507,506,512
38886,506,510,510
38890,516,518,512
38894,509,503,486
38898,525,506,502
38902,515,538,523
38906,519,517,514
38910,517,550,531
38915,495,602,588
38919,495,542,544
38923,504,470,471
38927,499,478,445
38931,498,489,463
38935,504,516,522
38939,507,521,535
38943,498,491,486
38947,493,518,514
38951,508,492,518
38956,515,512,519
38960,517,528,530
38964,508,556,547
38968,517,529,498
38972,506,493,484
38976,490,499,478
38980,494,507,501
38984,502,509,529
38988,516,503,497
38992,517,506,523
38996,500,515,518
39000,500,514,508
39003,499,520,523
39006,496,502,497
39010,505,496,485
39014,512,503,483
39018,514,512,506
39022,520,536,519
39026,531,526,536
39030,499,504,506
39034,493,513,552
39038,499,538,543
39043,515,483,485
39047,525,467,475
39051,507,476,488
39055,509,530,564
39059,498,580,591
39063,504,523,480
39067,497,494,432
39071,507,488,473
39075,506,506,521
39079,522,495,489
39084,508,477,499
39088,499,506,509
39092,499,517,535
39096,498,504,508
39100,497,513,525
39104,510,534,498
39108,512,530,482
39112,514,502,494
39116,508,472,491
39120,509,508,520
39124,516,522,522
39129,506,508,504
39133,515,504,510
39137,521,541,557
39141,505,524,533
39145,512,507,536
39149,513,493,525
39153,509,491,501
39157,513,481,487
39160,504,480,489
39163,499,511,488
39166,510,527,471
39170,516,527,484
39174,513,520,497
39178,492,517,558
39182,493,541,568
39186,489,530,540
39190,503,513,499
39194,527,493,501
39198,509,496,502
39202,505,497,507
39206,514,528,525
39211,507,508,501
39215,511,498,481
39219,514,517,478
39223,505,503,497
39227,498,503,508
39231,488,526,534
39235,511,550,515
39239,516,492,472
39243,511,513,509
39247,502,507,513
39251,513,498,534
39256,505,483,527
39260,512,525,533
39264,501,532,524
39268,506,514,474
39272,527,498,496
39276,504,490,532
39280,495,490,506
39284,511,495,473
39288,501,484,485
39292,497,516,567
39297,507,508,523
39301,529,478,468
39305,506,499,494
39309,507,507,488
39313,515,510,485
39317,496,528,506
39321,501,513,516
39324,501,491,512
39327,507,511,550
39330,504,557,562
39334,502,543,511
39339,515,485,478
39343,511,501,485
39347,508,526,504
39351,497,499,514
39355,496,523,515
39359,506,515,480
39363,513,523,532
39367,506,525,527
39371,511,497,495
39375,504,490,498
39379,512,503,496
39384,510,494,520
39388,497,464,503
39392,498,494,519
39396,507,545,545
39400,517,495,483
39404,528,492,481
39408,510,501,506
39412,511,553,552
39416,499,538,532
39420,503,515,496
39425,500,482,464
39429,493,497,498
39433,520,514,486
39437,511,539,484
39441,502,485,484
39445,508,471,537
39449,501,514,546
39453,502,506,503
39457,509,504,530
39461,506,500,520
39465,507,531,518
39470,497,512,497
39474,508,505,525
39478,515,517,507
39482,507,507,508
39485,501,541,563
39488,498,547,529
39491,518,509,462
39495,516,514,481
39499,516,492,502
39503,504,482,493
39507,504,509,499
39512,512,516,491
39516,503,486,449
39520,497,490,502
39524,500,503,537
39528,511,497,553
39532,506,522,549
39536,504,535,520
39540,508,519,507
39544,509,499,517
39548,525,502,523
39553,509,485,496
39557,512,478,494
39561,510,517,552
39565,499,634,578
39569,497,581,482
39573,510,458,442
39577,528,456,476
39581,511,478,475
39585,496,501,531
39589,493,514,545
39593,503,485,489
39598,504,502,478
39602,514,528,499
39606,517,541,572
39610,512,532,543
39614,519,472,479
39618,508,482,482
39622,505,509,499
39626,502,541,542
39630,504,521,545
39634,505,518,505
39639,511,501,488
39643,509,536,561
39647,505,558,636
39650,508,541,588
39653,509,497,461
39656,505,533,496
39660,509,573,568
39664,505,489,439
39668,509,498,409
39672,507,455,462
39676,514,451,474
39681,517,487,475
39685,510,466,474
39689,510,464,510
39693,513,479,509
39697,512,473,482
39701,503,524,479
39705,499,521,504
39709,495,508,531
39713,514,505,519
39717,518,511,519
39721,502,536,555
39726,514,528,541
39730,521,539,534
39734,500,531,505
39738,504,566,516
39742,501,561,503
39746,502,488,504
39750,514,531,594
39754,524,511,557
39758,507,500,466
39762,495,478,456
39767,499,478,485
39771,511,477,475
39775,517,519,532
39779,512,522,499
39783,507,503,451
39787,507,487,493
39791,501,465,476
39795,505,490,515
39799,505,508,535
39803,513,509,525
39808,514,543,569
39811,519,515,550
39814,504,517,481
39817,494,499,477
39821,509,480,501
39825,514,551,553
39829,526,556,511
39833,502,526,519
39837,492,493,521
39841,511,473,487
39845,518,479,485
39849,509,502,511
39854,509,513,507
39858,500,449,468
39862,508,523,484
39866,516,525,493
39870,504,506,511
39874,502,523,530
39878,499,533,529
39882,509,472,473
39886,522,483,456
39890,520,548,525
39895,506,510,525
39899,504,499,536
39903,507,523,553
39907,509,562,555
39911,516,530,495
39915,508,506,513
39919,500,511,561
39923,497,484,496
39927,502,483,466
39931,503,490,453
39936,513,488,477
39940,522,539,532
39944,517,513,507
39948,516,460,467
39952,497,528,495
39956,502,503,526
39960,506,497,557
39964,510,524,541
39968,509,502,499
39971,509,502,518
39974,502,527,562
39977,498,504,521
39981,510,509,486
39985,510,541,512
39989,506,541,502
39993,511,500,531
39997,532,482,514
40001,500,507,499
40005,495,507,459
40009,502,519,449
40013,511,476,487
40017,508,481,535
40022,508,510,562
40026,515,513,519
40030,515,514,489
40034,507,524,524
40038,498,521,522
40042,501,530,518
40046,499,529,514
40050,513,514,551
40054,522,487,506
40058,510,474,493
40062,500,487,527
40067,489,507,512
40071,493,535,497
40075,510,495,470
40079,521,490,475
40083,518,495,492
40087,504,531,535
40091,501,542,567
40095,496,516,509
40099,503,474,485
40103,517,474,471
40108,518,490,486
40112,514,504,509
40116,518,506,523
40120,517,513,527
40124,501,547,472
40128,499,538,497
40132,509,550,563
40135,509,510,545
40138,514,459,492
40141,515,469,483
40145,506,462,472
40150,503,546,547
40154,514,600,554
40158,511,503,510
40162,515,458,499
40166,522,438,457
40170,511,448,460
40174,506,480,478
40178,516,529,511
40182,510,485,470
40186,515,523,505
40190,501,510,527
40195,499,494,516
40199,503,502,496
40203,510,486,498
40207,507,492,522
40211,502,536,553
40215,503,594,595
40219,507,541,478
40223,500,471,460
40227,507,446,460
40231,513,497,500
40236,517,548,512
40240,515,536,531
40244,495,544,523
40248,496,531,474
40252,507,515,479
40256,509,506,519
40260,513,512,527
40264,510,505,513
40268,513,486,504
40272,520,487,516
40276,507,536,534
40281,497,536,498
40285,498,497,485
40289,505,506,498
40293,496,515,520
40296,507,504,486
40299,510,512,502
40302,516,516,525
40306,513,518,537
40310,510,517,525
40314,517,486,481
40318,514,470,489
40323,508,549,546
40327,485,569,534
40331,494,510,494
40335,515,507,495
40339,510,530,521
40343,507,552,585
40347,500,511,523
40351,491,463,447
40355,505,462,449
40359,513,462,461
40364,504,532,525
40368,505,541,521
40372,515,527,504
40376,511,497,508
40380,514,484,500
40384,512,513,532
40388,507,541,549
40392,509,519,502
40396,510,502,495
40400,515,495,500
40404,516,500,500
40409,516,500,496
40413,500,512,510
40417,492,519,512
40421,498,526,501
40425,503,536,546
40429,500,494,550
40433,506,488,501
40437,516,502,497
40441,513,501,500
40445,515,505,478
40450,501,536,522
40454,511,551,530
40458,510,557,493
40461,506,542,529
40464,506,481,520
40467,494,491,528
40471,498,501,532
40475,493,469,477
40479,507,507,517
40483,508,507,516
40487,516,484,480
40492,512,504,498
40496,511,499,508
40500,517,488,492
40504,516,507,494
40508,498,518,503
40512,501,510,510
40516,517,548,540
40520,516,542,542
40524,508,501,514
40528,505,521,459
40532,518,525,482
40537,510,505,498
40541,518,522,513
40545,511,527,511
40549,508,480,484
40553,502,494,503
40557,497,506,532
40561,506,496,537
40565,509,485,504
40569,508,485,480
40573,515,519,499
40578,507,521,497
40582,496,516,503
40586,488,547,541
40590,499,553,570
40594,510,483,517
40598,527,500,506
40602,518,532,505
40606,497,515,492
40610,497,499,487
40614,511,498,474
40619,506,497,451
40622,513,525,527
40625,511,522,563
40628,513,510,523
40632,505,486,485
40636,517,495,525
40640,500,543,530
40644,501,491,515
40648,499,460,478
40652,507,479,493
40656,517,499,512
40660,521,528,516
40665,498,499,485
40669,501,498,503
40673,512,512,483
40677,515,535,522
40681,502,559,557
40685,495,514,537
40689,508,494,520
40693,519,484,481
40697,508,482,490
40701,487,531,533
40706,495,549,531
40710,512,563,503
40714,521,490,511
40718,516,452,491
40722,509,448,505
40726,505,450,550
40730,506,537,523
40734,500,534,498
40738,496,521,498
40742,506,515,495
40747,509,510,499
40751,501,510,521
40755,501,518,522
40759,507,514,488
40763,512,481,500
40767,514,461,482
40771,511,506,519
40775,511,500,511
40779,499,517,534
40782,499,571,584
40785,513,555,557
40788,523,505,496
40792,502,527,494
40796,494,512,519
40800,505,496,493
40804,527,506,491
40808,517,488,494
40812,507,505,464
40816,517,518,504
40820,514,503,529
40824,504,503,521
40828,502,509,516
40833,505,491,521
40837,514,462,495
40841,511,563,541
40845,513,540,535
40849,511,518,540
40853,509,546,555
40857,508,560,529
40861,515,502,477
40865,516,482,477
40869,503,484,494
40873,498,469,495
40878,510,487,495
40882,518,537,491
40886,513,533,503
40890,508,541,522
40894,513,529,513
40898,513,498,508
40902,516,498,522
40906,502,515,543
40910,499,509,514
40914,512,509,507
40919,526,495,509
40923,512,510,511
40927,501,541,520
40931,502,511,481
40935,505,507,488
40939,503,517,511
40943,513,508,494
40946,505,507,492
40949,510,515,513
40952,522,515,520
40956,508,523,498
40961,496,517,488
40965,496,506,508
40969,499,514,515
40973,498,484,498
40977,505,533,532
40981,523,528,529
40985,513,520,503
40989,505,509,512
40993,510,504,523
40997,513,497,502
41001,499,485,505
41006,509,502,511
41010,510,508,506
41014,495,518,519
41018,502,509,503
41022,499,494,488
41026,511,527,503
41030,526,538,529
41034,511,535,518
41038,501,504,502
41042,495,507,512
41047,500,490,503
41051,507,482,493
41055,514,513,483
41059,518,522,523
41063,515,526,539
41067,509,495,496
41071,498,465,455
41075,494,507,482
41079,507,502,521
41083,513,483,530
41088,495,508,522
41092,496,556,551
41096,506,498,512
41100,520,478,459
41104,516,485,496
41107,518,519,512
41110,505,498,485
41113,500,477,481
41116,506,535,511
41120,496,489,513
41124,500,487,529
41128,510,522,530
41133,525,516,520
41137,509,499,519
41141,505,491,498
41145,512,513,494
41149,507,555,567
41153,504,537,535
41157,500,506,504
41161,509,517,500
41165,508,503,489
41169,506,495,501
41174,505,494,516
41178,504,507,518
41182,517,512,513
41186,516,509,499
41190,505,515,500
41194,498,508,515
41198,502,503,502
41202,503,498,507
41206,511,490,520
41210,511,529,543
41214,513,536,513
41219,510,484,484
41223,511,483,476
41227,511,512,490
41231,503,486,490
41235,510,473,494
41239,501,506,502
41243,517,520,519
41247,519,522,541
41251,510,528,556
41255,502,531,524
41260,518,507,478
41264,511,507,503
41268,497,510,501
41271,496,511,506
41274,502,507,516
41277,507,532,539
41281,508,530,517
41285,497,486,490
41289,497,474,489
41293,500,479,493
41297,506,502,493
41302,514,512,500
41306,518,508,509
41310,507,522,517
41314,505,516,509
41318,506,513,507
41322,507,511,508
41326,512,515,506
41330,507,526,503
41334,502,510,505
41338,502,493,500
41342,501,500,502
41347,506,517,511
41351,507,520,510
41355,515,515,509
41359,516,504,502
41363,506,504,505
41367,507,512,515
41371,507,512,520
41375,508,525,511
41379,511,518,507
41383,507,522,511
41388,503,526,513
41392,500,517,510
41396,511,508,505
41400,532,510,495
41404,518,503,487
41408,501,498,489
41412,503,499,488
41416,505,503,495
41420,509,509,500
41424,513,506,496
41428,507,500,490
41433,500,496,482
41436,503,494,471
41439,507,503,499
41443,519,506,521
41447,516,512,518
41451,518,502,505
41455,522,490,500
41459,506,495,498
41463,506,492,493
41467,500,493,493
41472,495,504,503
41476,499,508,507
41480,501,506,503
41484,507,506,498
41488,510,511,501
41492,502,500,501
41496,506,496,500
41500,506,498,496
41504,509,500,502
41508,507,495,499
41512,507,492,499
41517,516,494,499
41521,518,498,502
41525,530,496,500
41529,512,496,502
41533,506,486,503
41537,508,494,501
41541,504,496,496
41545,500,497,496
41549,502,490,492
41553,515,485,488
41558,503,498,493
41562,505,492,486
41566,507,494,487
41570,509,499,508
41574,517,493,508
41578,502,496,502
41582,507,507,500
41586,512,503,506
41590,502,498,512
41594,501,496,505
41597,511,494,500
41601,511,494,500
41604,511,490,495
41608,511,488,497
41612,514,490,500
41616,504,497,501
41620,505,501,498
41624,514,499,496
41628,523,497,494
41632,512,500,494
41636,503,507,496
41640,504,512,500
41645,501,504,502
41649,502,503,499
41653,503,507,502
41657,503,515,499
41661,506,516,494
41665,511,508,498
41669,510,499,500
41673,506,506,503
41677,504,512,504
41681,509,517,503
41686,499,508,495
41690,498,510,502
41694,506,509,505
41698,506,512,506
41702,507,508,505
41706,506,505,499
41710,506,497,496
41714,505,501,505
41718,505,509,512
41722,510,511,513
41726,511,510,506
41731,510,508,503
41735,508,509,511
41739,506,511,512
41743,500,509,508
41747,507,510,509
41751,509,510,508
41755,506,513,509
41759,509,514,504
41762,504,511,501
41765,509,507,507
41768,511,510,510
41773,508,510,509
41777,508,511,507
41781,500,507,511
41785,506,506,513
41789,507,503,507
41793,515,509,505
41797,504,509,503
41801,497,504,510
41805,494,506,513
41809,501,511,513
41814,507,512,514
41818,501,510,516
41822,506,508,515
41826,501,511,516
41830,506,515,514
41834,524,516,513
41838,511,513,514
41842,509,511,515
41846,503,510,510
41850,500,514,509
41854,509,507,518
41859,509,502,521
41863,507,500,522
41867,507,507,518
41871,505,512,512
41875,502,515,506
41879,505,513,513
41883,493,506,511
41887,502,509,511
41891,501,516,522
41895,514,512,519
41900,511,506,514
41904,506,503,511
41908,503,509,517
41912,501,516,519
41916,504,518,515
41920,505,511,513
41924,505,510,517
41927,500,514,518
41930,503,520,515
41934,511,520,520
41938,507,516,516
41943,509,516,516
41947,507,518,516
41951,503,519,521
41955,506,513,513
41959,511,511,514
41963,512,510,515
41967,518,515,522
41971,518,524,521
41975,500,525,512
41979,503,519,506
41984,496,514,513
41988,502,514,505
41992,503,518,495
41996,493,523,501
42000,505,530,541
42004,508,519,535
42008,509,516,516
42012,507,518,519
42016,504,510,511
42020,504,505,507
42024,509,509,509
42029,515,514,509
42033,505,512,511
42037,504,511,509
42041,505,511,511
42045,502,516,514
42049,510,520,514
42053,514,517,522
42057,513,509,519
42061,507,504,512
42065,505,510,511
42070,506,516,510
42074,501,520,515
42078,508,522,505
42082,516,515,501
42086,503,515,511
42089,499,519,515
42092,512,521,517
42095,516,519,519
42099,500,517,511
42103,498,516,509
42107,505,516,514
42112,508,514,512
42116,507,512,509
42120,511,515,511
42124,511,515,510
42128,510,512,510
42132,515,509,504
42136,504,508,506
42140,500,515,512
42144,509,520,511
42148,519,523,513
42152,511,519,516
42157,506,514,512
42161,503,509,504
42165,508,510,505
42169,510,513,510
42173,503,509,511
42177,503,505,509
42181,506,516,516
42185,512,523,514
42189,517,521,512
42193,504,518,512
42198,496,513,509
42202,506,511,512
42206,507,510,511
42210,509,512,513
42214,506,513,514
42218,501,514,515
42222,508,514,511
42226,505,512,513
42230,505,510,513
42234,507,509,510
42238,516,509,513
42243,511,511,514
42247,509,516,515
42250,515,515,514
42253,513,507,511
42256,509,506,511
42259,519,512,511
42263,503,511,509
42267,507,510,508
42271,501,508,509
42275,495,509,511
42279,502,509,512
42284,502,511,514
42288,509,512,509
42292,506,509,510
42296,505,511,512
42300,507,513,514
42304,507,513,515
42308,509,509,516
42312,510,509,517
42316,510,510,515
42320,511,513,516
42324,511,513,515
42329,512,511,512
42333,510,509,513
42337,508,512,515
42341,511,516,515
42345,512,514,514
42349,510,509,511
42353,505,507,512
42357,503,513,514
42361,504,514,513
42365,509,512,512
42370,509,509,514
42374,507,511,517
42378,507,516,516
42382,511,514,514
42386,510,506,508
42390,510,502,505
42394,508,508,511
42398,511,514,510
42402,513,522,513
42406,511,515,516
42409,514,507,517
42413,513,508,516
42416,505,513,515
42419,511,516,516
42423,512,513,514
42427,507,509,516
42431,512,511,516
42435,513,513,513
42439,513,512,513
42443,509,511,510
42447,508,507,510
42451,505,509,512
42456,501,516,512
42460,503,517,513
42464,502,513,512
42468,506,509,512
42472,506,509,514
42476,508,512,515
42480,508,512,514
42484,508,510,514
42488,506,511,514
42492,506,516,512
42497,510,519,508
42501,511,516,514
42505,510,511,514
42509,501,507,516
42513,503,510,519
42517,506,512,513
42521,506,515,509
42525,511,515,513
42529,506,513,518
42533,505,511,517
42537,508,510,515
42542,506,509,512
42546,503,508,511
42550,499,512,513
42554,507,515,514
42558,507,517,511
42562,508,513,507
42566,514,508,509
42570,509,511,508
42573,509,515,510
42576,507,515,514
42579,507,517,523
42583,504,523,520
42587,503,521,504
42591,506,525,498
42595,507,522,508
42599,506,509,514
42603,511,502,518
42607,505,502,515
42611,503,504,512
42615,504,504,512
42619,502,503,513
42624,507,504,512
42628,509,508,512
42632,508,511,510
42636,508,509,507
42640,509,505,504
42644,508,504,503
42648,515,507,509
42652,505,509,510
42656,511,511,510
42660,509,512,510
42664,506,511,511
42669,506,512,509
42673,510,515,509
42677,509,513,509
42681,509,510,509
42685,508,510,509
42689,507,513,509
42693,514,513,510
42697,510,507,511
42701,509,507,511
42705,506,507,512
42710,504,508,509
42714,504,510,509
42718,512,511,511
42722,508,507,514
42726,507,505,515
42730,509,509,513
42734,508,512,509
42737,506,513,508
42740,507,514,511
42743,509,508,514
42747,514,507,510
42752,516,504,506
42756,511,504,506
42760,511,507,510
42764,507,512,513
42768,513,515,512
42772,510,509,508
42776,510,505,506
42780,513,509,509
42784,509,509,512
42788,514,513,513
42792,504,510,511
42797,507,505,511
42801,507,509,511
42805,505,513,512
42809,507,509,511
42813,512,504,510
42817,508,501,508
42821,508,504,510
42825,509,510,511
42829,507,515,512
42833,504,514,513
42838,509,510,513
42842,506,514,513
42846,505,515,511
42850,510,513,507
42854,508,509,510
42858,507,507,511
42862,508,507,512
42866,521,509,514
42870,510,506,513
42874,505,506,513
42878,503,508,514
42883,510,510,512
42887,505,512,511
42891,505,510,512
42895,508,509,513
42898,502,511,514
42901,501,514,512
42904,506,516,510
42908,510,512,508
42912,506,505,509
42916,509,507,510
42920,507,513,512
42925,508,514,513
42929,505,509,512
42933,502,507,511
42937,509,508,511
42941,505,512,514
42945,506,513,514
42949,512,510,514
42953,513,508,513
42957,507,512,514
42961,498,518,517
42966,504,521,517
42970,507,513,515
42974,509,507,514
42978,503,507,511
42982,502,510,511
42986,511,510,512
42990,507,506,513
42994,504,502,510
42998,501,507,509
43002,506,514,509
43006,506,512,510
43011,511,510,509
43015,511,511,510
43019,505,512,512
43023,503,511,514
43027,505,508,513
43031,502,505,513
43035,503,509,514
43039,509,509,513
43043,509,506,515
43047,509,505,513
43052,504,502,511
43056,505,502,510
43060,504,508,511
43063,506,508,511
43066,505,506,509
43069,506,507,509
43073,508,512,510
43077,501,513,502
43081,506,512,503
43085,512,508,507
43089,506,504,508
43094,503,506,509
43098,505,511,508
43102,502,511,509
43106,505,508,512
43110,504,506,511
43114,507,505,509
43118,507,506,507
43122,502,509,505
43126,504,506,506
43130,508,505,509
43134,506,506,510
43139,510,508,510
43143,503,510,510
43147,504,510,512
43151,503,509,512
43155,503,510,512
43159,503,513,512
43163,508,511,513
43167,508,504,514
43171,507,504,512
43175,503,513,511
43180,507,514,511
43184,507,507,508
43188,506,507,505
43192,508,508,507
43196,510,512,511
43200,517,514,512
43204,515,510,510
43208,509,507,510
43212,510,511,511
43216,508,514,511
43220,507,512,512
43224,502,504,508
43227,509,500,506
43230,506,505,507
43234,507,509,506
43238,510,507,505
43242,510,504,504
43246,514,503,505
43250,503,503,504
43254,504,508,505
43258,506,510,507
43262,509,508,506
43267,497,506,509
43271,498,506,509
43275,504,509,510
43279,509,508,512
43283,511,503,514
43287,509,501,513
43291,506,504,511
43295,510,506,508
43299,516,505,506
43303,514,512,512
43308,509,519,518
43312,509,513,508
43316,506,511,505
43320,507,508,505
43324,509,501,503
43328,503,502,503
43332,500,508,504
43336,514,511,506
43340,515,512,509
43344,509,508,508
43348,507,508,508
43353,508,511,507
43357,510,515,505
43361,508,511,504
43365,505,506,506
43369,506,509,508
43373,508,513,506
43377,508,511,507
43381,505,506,506
43384,503,505,508
43387,503,509,510
43390,504,511,509
43394,508,509,507
43398,513,508,508
43402,509,508,511
43406,505,511,513
43410,505,511,511
43414,509,507,508
43418,508,508,506
43422,505,508,507
43426,510,509,508
43430,506,509,510
43435,506,507,510
43439,505,505,509
43443,511,504,511
43447,520,504,508
43451,513,504,511
43455,504,503,511
43459,502,503,513
43463,503,504,511
43467,502,507,509
43471,505,510,509
43475,508,509,509
43480,508,507,511
43484,510,509,508
43488,512,513,507
43492,507,512,506
43496,505,509,507
43500,506,509,508
43504,506,513,508
43508,508,516,505
43512,511,512,504
43516,513,505,505
43521,510,503,507
43525,508,508,507
43529,503,512,505
43533,499,513,506
43537,502,510,507
43541,504,510,506
43545,502,512,504
43548,503,515,506
43551,504,511,504
43554,502,504,502
43558,507,506,504
43563,510,510,505
43567,507,513,506
43571,502,512,507
43575,498,506,505
43579,501,505,506
43583,504,506,506
43587,510,504,505
43591,526,502,504
43595,516,503,504
43599,496,509,508
43603,497,510,508
43608,506,507,507
43612,505,505,508
43616,501,503,509
43620,501,505,510
43624,504,507,511
43628,506,507,508
43632,509,503,504
43636,508,507,504
43640,508,512,504
43644,505,513,505
43649,505,512,505
43653,508,510,505
43657,517,510,506
43661,515,510,507
43665,509,510,508
43669,494,507,508
43673,499,504,509
43677,500,506,509
43681,502,511,512
43685,508,511,513
43689,504,508,508
43694,507,505,503
43698,509,507,507
43702,510,512,513
43706,510,513,513
43709,514,509,509
43712,511,510,507
43715,501,511,508
43719,507,514,507
43723,508,516,509
43727,505,513,510
43731,503,507,509
43736,500,511,511
43740,503,517,511
43744,505,514,507
43748,509,509,503
43752,513,504,503
43756,509,505,502
43760,503,511,503
43764,508,516,503
43768,506,514,505
43772,508,510,507
43777,508,510,508
43781,507,515,508
43785,509,512,508
43789,514,509,506
43793,509,513,508
43797,506,517,506
43801,509,515,510
43805,518,512,509
43809,516,507,506
43813,501,508,507
43817,499,513,509
43822,503,519,509
43826,506,515,506
43830,508,510,505
43834,507,510,507
43838,512,516,506
43842,510,519,505
43846,508,515,506
43850,509,511,508
43854,505,513,510
43858,510,515,510
43863,509,519,509
43867,505,518,509
43871,507,514,510
43874,511,517,514
43877,511,522,510
43880,511,524,508
43884,508,518,506
43888,502,513,506
43892,504,513,502
43896,503,516,505
43900,502,517,504
43905,509,515,505
43909,507,512,506
43913,505,510,508
43917,504,513,509
43921,507,514,507
43925,509,511,506
43929,509,510,507
43933,507,512,506
43937,503,515,508
43941,508,515,509
43945,505,509,511
43950,504,508,514
43954,506,512,517
43958,505,511,514
43962,508,508,512
43966,510,506,512
43970,509,508,512
43974,506,515,512
43978,509,517,512
43982,507,512,510
43986,510,507,507
43991,512,511,507
43995,508,514,512
43999,509,513,514
44003,507,508,512
44007,507,507,512
44011,507,508,516
44015,513,508,514
44019,508,506,507
44023,512,503,507
44027,507,503,510
44032,501,505,514
44035,509,508,517
44038,513,506,515
44041,508,505,516
44045,506,503,510
44049,508,506,510
44053,503,508,511
44057,507,508,508
44061,504,505,507
44065,503,502,508
44069,503,504,510
44073,508,507,509
44078,506,506,509
44082,506,502,510
44086,505,500,507
44090,508,505,507
44094,506,509,507
44098,507,510,507
44102,506,510,505
44106,509,512,505
44110,514,515,507
44114,512,514,509
44119,516,510,507
44123,514,505,510
44127,507,507,511
44131,503,512,514
44135,510,513,512
44139,510,507,507
44143,508,503,504
44147,503,506,501
44151,502,510,503
44155,506,509,511
44160,504,509,513
44164,497,511,511
44168,510,510,510
44172,513,511,507
44176,511,510,508
44180,501,504,507
44184,499,502,509
44188,506,505,511
44192,516,510,510
44195,519,510,510
44198,514,507,508
44201,505,507,510
44205,509,508,511
44209,510,510,510
44213,509,509,505
44217,513,508,507
44221,509,508,508
44225,511,508,507
44229,515,509,506
44233,515,508,507
44237,509,504,508
44241,515,506,509
44246,512,510,509
44250,511,512,509
44254,520,509,510
44258,516,507,509
44262,513,510,510
44266,514,517,508
44270,509,516,508
44274,506,510,515
44278,509,507,515
44282,511,509,513
44286,516,513,514
44291,516,512,514
44295,510,507,511
44299,508,503,510
44303,510,505,508
44307,510,510,507
44311,507,514,510
44315,509,508,508
44319,505,503,508
44323,508,506,511
44327,514,508,510
44332,517,508,509
44336,510,507,510
44340,509,507,509
44344,512,510,510
44348,510,513,510
44352,507,512,508
44356,504,509,509
44359,504,510,508
44362,509,513,506
44365,511,510,506
44369,508,505,508
44374,510,504,509
44378,509,503,511
44382,514,509,509
44386,506,514,510
44390,510,510,510
44394,504,507,512
44398,504,506,511
44402,506,506,507
44406,505,506,505
44410,506,508,503
44414,509,506,504
44419,513,505,509
44423,508,508,510
44427,504,509,508
44431,504,507,508
44435,502,507,510
44439,501,510,512
44443,512,512,510
44447,511,512,506
44451,502,505,505
44455,503,501,509
44460,498,506,509
44464,516,511,508
44468,512,511,510
44472,512,505,511
44476,499,504,508
44480,502,507,507
44484,512,509,507
44488,500,509,507
44492,498,509,507
44496,500,507,507
44500,502,508,505
44505,507,508,504
44509,505,505,505
44513,503,502,505
44517,509,504,510
44521,512,508,509
44524,505,509,509
44527,505,507,508
44531,502,508,509
44535,507,512,508
44539,503,516,504
44544,509,515,502
44548,499,508,505
44552,502,503,510
44556,495,504,513
44560,501,507,512
44564,507,511,511
44568,517,507,510
44572,510,503,503
44576,500,508,503
44580,506,514,507
44584,503,512,510
44589,504,507,510
