288077,498,503,507
288081,499,508,509
288086,505,509,509
288089,520,505,510
288093,523,506,509
288097,514,503,509
288101,502,505,507
288105,501,511,505
288109,504,508,505
288113,505,508,508
288117,506,507,508
288121,504,511,505
288125,508,511,505
288130,504,510,506
288134,499,504,506
288138,504,507,508
288142,511,509,508
288145,507,507,507
288149,511,506,509
288153,501,505,512
288157,495,505,513
288161,499,506,513
288165,504,506,513
288169,514,503,511
288174,516,503,509
288178,507,506,509
288182,508,514,510
288186,511,506,508
288190,506,500,508
288194,511,504,508
288198,503,502,505
288201,500,505,509
288204,508,507,508
288208,503,508,510
288212,503,512,509
288217,504,514,507
288221,509,515,509
288225,507,509,507
288229,504,504,505
288233,506,503,505
288237,509,507,507
288241,511,512,508
288245,507,512,511
288249,506,508,512
288253,510,507,510
288258,506,506,507
288261,509,503,507
288265,505,503,510
288269,503,506,515
288273,509,513,516
288277,509,514,514
288281,511,514,512
288285,511,512,510
288289,513,511,507
288293,503,513,504
288297,508,517,510
288302,505,518,511
288306,507,517,510
288310,519,514,510
288314,509,513,508
288317,504,516,509
288321,508,515,509
288325,507,510,509
288329,509,512,510
288333,512,516,509
288337,503,516,510
288342,508,510,511
288346,504,507,510
288350,504,510,508
288354,509,516,510
288358,509,509,509
288362,505,506,508
288366,512,502,510
288370,518,505,511
288373,514,508,511
288377,507,509,510
288381,507,509,508
288386,503,507,509
288390,511,509,508
288394,515,511,508
288398,510,512,508
288402,506,510,505
288406,506,512,506
288410,510,513,506
288414,509,507,506
288418,512,500,503
288422,517,499,503
288427,514,506,508
288430,518,511,506
288434,513,510,505
288438,512,510,506
288442,507,510,509
288446,514,508,509
288450,522,507,508
288454,511,510,509
288458,501,512,509
288462,499,510,508
288466,506,511,508
288471,511,519,509
288475,511,510,507
288479,510,503,505
288483,507,504,507
288486,510,513,509
288490,509,515,512
288494,519,509,515
288498,504,507,517
288502,511,508,514
288506,513,510,510
288510,522,510,508
288515,510,508,508
288519,503,507,510
288523,499,512,513
288527,501,513,511
288531,506,512,509
288535,508,510,509
288539,508,509,508
288542,514,508,509
288546,512,512,511
288550,505,514,509
288555,508,510,512
288559,508,504,513
288563,514,506,516
288567,517,509,516
288571,501,510,514
288575,502,506,508
288579,510,507,511
288583,504,511,513
288587,506,514,514
288591,508,509,513
288595,508,505,512
288599,504,503,509
288603,508,508,510
288607,518,509,508
288611,505,508,509
288615,498,506,508
288619,505,504,505
288623,509,506,505
288627,502,508,506
288631,504,502,507
288635,510,503,507
288640,513,506,510
288644,508,512,510
288648,508,516,510
288652,503,510,510
288655,502,508,509
288659,506,510,510
288663,510,515,508
288667,516,515,511
288671,507,512,511
288675,495,508,510
288679,502,511,509
288684,509,515,510
288688,509,510,510
288692,503,505,510
288696,510,503,510
288700,519,509,512
288704,505,514,516
288708,508,512,516
288711,502,509,515
288715,508,511,513
288719,511,515,515
288723,515,513,513
288728,516,510,512
288732,511,508,513
288736,503,510,512
288740,508,515,511
288744,516,514,510
288748,508,514,510
288752,511,513,507
288756,512,514,508
288760,511,512,509
288764,505,508,509
288768,508,503,507
288772,520,503,508
288776,505,509,506
288780,502,513,509
288784,506,513,510
288788,504,507,506
288792,500,508,506
288796,511,515,507
288800,506,519,510
288804,508,512,509
288808,502,513,512
288813,512,513,514
288817,512,511,514
288821,505,510,516
288824,502,510,516
288828,506,512,517
288832,507,514,515
288836,505,515,514
288840,513,513,510
288844,506,510,511
288848,508,509,511
288852,504,506,507
288857,507,509,505
288861,507,511,505
288865,507,503,506
288869,509,502,507
288873,514,507,506
288877,510,509,505
288880,505,508,507
288884,501,505,508
288888,498,507,508
288892,506,510,507
288897,508,511,508
288901,506,509,506
288905,504,510,507
288909,509,504,507
288913,514,506,508
288917,510,506,508
288921,505,506,509
288925,506,500,507
288929,500,503,510
288933,505,510,509
288936,506,510,510
288941,508,510,509
288945,508,508,510
288949,512,506,509
288953,508,512,511
288957,499,510,507
288961,501,506,506
288965,510,510,507
288969,511,513,508
288973,513,517,511
288977,502,510,508
288982,503,505,509
288986,500,506,511
288990,509,506,511
288993,506,505,509
288996,508,508,509
289000,505,508,507
289004,510,506,508
289008,508,513,512
289012,503,506,510
289016,504,503,510
289020,509,508,512
289025,510,510,511
289029,506,511,507
289033,513,512,504
289037,513,511,507
289041,509,512,508
289045,505,513,508
289049,504,515,509
289052,504,510,507
289056,502,507,507
289060,499,504,508
289064,503,510,511
289069,505,515,514
289073,511,510,512
289077,509,508,511
289081,501,501,510
289085,508,507,512
289089,509,507,510
289093,512,506,511
289097,507,503,509
289101,504,502,509
289104,508,509,509
289107,512,508,511
289112,509,506,512
289116,507,509,514
289120,514,505,508
289124,508,503,507
289128,511,503,507
289132,508,502,506
289136,507,505,509
289140,513,505,509
289144,513,511,508
289148,509,510,507
289153,502,505,504
289157,501,507,503
289160,504,513,504
289163,509,515,506
289167,512,512,506
289171,508,513,508
289175,523,511,506
289179,517,514,505
289183,510,510,500
289187,498,512,503
289191,500,507,504
289196,510,509,505
289200,514,514,507
289204,514,509,505
289208,507,509,508
289212,505,508,510
289215,509,514,512
289218,507,515,512
289222,513,515,511
289226,514,511,510
289230,507,511,511
289234,505,515,512
289239,510,516,510
289243,505,511,509
289247,510,512,512
289251,519,510,511
289255,512,512,510
289259,506,513,512
289263,505,515,513
289267,501,513,510
289270,500,508,507
289273,505,511,510
289277,507,510,509
289282,511,508,509
289286,508,508,510
289290,509,509,509
289294,503,512,509
289298,502,513,512
289302,501,510,507
289306,500,509,507
289310,503,512,504
289314,507,516,503
289318,510,515,507
289323,511,512,505
289327,509,510,505
289330,510,511,507
289334,511,512,507
289338,504,513,506
289342,503,512,509
289346,509,505,507
289350,510,506,507
289354,516,510,507
289358,511,513,509
289362,497,506,509
289367,501,508,510
289371,510,513,510
289375,506,513,512
289379,509,505,509
289383,506,507,510
289386,503,508,506
289390,503,514,506
289394,505,515,506
289398,505,510,508
289402,509,509,508
289406,509,508,507
289411,509,511,508
289415,512,509,506
289419,514,506,505
289423,509,507,504
289427,511,511,506
289431,507,514,506
289435,508,514,508
289438,502,510,508
289441,506,510,506
289445,515,510,503
289449,514,510,502
289454,510,506,505
289458,505,505,507
289462,504,506,509
289466,510,511,510
289470,509,513,510
289474,507,509,507
289478,504,508,506
289482,504,513,504
289486,512,518,505
289490,507,517,502
289495,506,512,501
289498,503,511,505
289502,505,514,508
289506,515,515,510
289510,506,510,509
289514,503,508,510
289518,507,509,510
289522,511,511,508
289526,510,511,506
289530,507,509,506
289534,507,507,506
289539,504,504,505
289543,506,509,508
289547,509,513,506
289551,505,508,508
289554,503,502,508
289558,502,504,509
289562,506,508,509
289566,511,508,509
289570,507,506,508
289574,506,509,507
289579,510,515,511
289583,513,509,509
289587,510,505,508
289591,504,505,507
289595,502,505,509
289599,503,508,509
289603,510,514,512
289607,505,512,512
289610,507,507,512
289614,512,510,511
289618,506,507,509
289623,510,508,511
289627,516,508,508
289631,505,508,508
289635,504,510,510
289639,514,513,510
289643,509,511,511
289647,501,510,515
289651,506,507,514
289655,499,508,511
289659,509,514,511
289664,507,511,508
289667,505,505,505
289671,501,506,505
289675,506,509,506
289679,505,512,504
289683,514,514,508
289687,513,514,510
289691,506,510,509
289695,501,511,509
289699,509,509,510
289703,517,505,510
289708,507,504,509
289712,517,509,509
289716,521,512,511
289720,504,512,511
289723,503,509,510
289727,505,509,511
289731,505,509,513
289735,511,512,515
289739,516,510,512
289743,513,506,513
289747,511,503,512
289752,505,504,509
289756,507,507,508
289760,510,509,509
289764,507,508,510
289768,513,507,510
289772,519,505,511
289776,514,504,511
289779,511,503,510
289783,505,502,511
289787,505,503,512
289792,511,509,514
289796,514,509,516
289800,516,509,516
289804,518,510,515
289808,508,512,513
289812,512,509,513
289816,512,508,512
289820,508,507,510
289824,506,503,511
289828,506,504,513
289832,509,507,513
289836,514,508,512
289840,510,511,513
289844,506,501,512
289848,505,501,510
289852,506,504,509
289856,510,503,510
289860,512,497,508
289864,510,501,511
289868,510,511,513
289872,507,505,510
289876,509,503,510
289881,513,504,510
289885,506,504,509
289889,511,505,512
289892,525,508,514
289896,508,505,513
289900,506,505,512
289904,514,502,509
289908,519,508,509
289912,512,508,510
289916,507,505,507
289921,507,504,508
289925,500,504,512
289929,504,505,511
289933,511,508,512
289937,511,509,513
289941,507,506,510
289945,500,506,511
289948,504,508,510
289952,505,509,508
289956,505,510,508
289960,506,507,506
289965,504,510,508
289969,507,509,511
289973,515,506,509
289977,506,504,508
289981,511,503,508
289985,503,506,507
289989,515,506,507
289993,516,506,508
289997,507,506,508
290001,516,508,507
290004,509,508,505
290009,501,517,508
290013,507,512,507
290017,512,505,507
290021,505,510,509
290025,502,517,512
290029,502,513,509
290033,507,510,510
290037,510,504,509
290041,508,506,509
290045,501,513,510
290050,504,518,511
290054,505,519,510
290058,506,514,507
290061,507,514,508
290065,509,521,509
290069,508,516,509
290073,507,512,510
290077,508,513,512
290081,508,513,511
290085,507,514,509
290089,507,510,507
290094,504,509,508
290098,523,508,508
290102,511,511,507
290106,507,512,507
290110,504,511,509
290114,503,513,509
290117,507,510,511
290121,510,513,512
290125,512,516,514
290129,503,512,510
290134,498,508,506
290138,506,509,507
290142,508,511,511
290146,504,515,511
290150,505,513,507
290154,511,504,504
290158,509,507,504
290162,514,511,503
290166,505,511,506
290170,499,508,509
290173,499,505,508
290178,499,510,508
290182,506,513,506
290186,505,515,506
290190,501,512,509
290194,507,512,512
290198,517,512,511
290202,513,511,513
290206,503,508,510
290210,503,505,505
290214,508,503,506
290219,510,504,505
290223,507,507,505
290227,505,506,507
290230,505,503,509
290234,501,504,509
290238,503,506,508
290242,506,504,507
290246,502,500,507
290250,505,502,507
290254,507,509,509
290258,512,508,507
290263,511,506,510
290267,502,503,510
290271,506,501,509
290275,510,507,509
290279,514,512,511
290283,515,509,509
290286,510,504,509
290290,503,503,510
290294,501,512,510
290298,506,514,509
290302,504,510,509
290307,510,507,511
290311,506,509,509
290315,511,516,511
290319,514,513,509
290323,506,507,508
290327,502,512,513
290331,504,508,512
290335,506,510,510
290339,505,512,511
290342,501,510,510
290347,505,509,513
290351,509,512,512
290355,510,511,508
290359,511,510,509
290363,502,509,511
290367,500,511,512
290371,504,515,515
290375,508,519,517
290379,513,515,514
290383,513,508,517
290387,510,511,517
290392,509,512,516
290396,504,510,510
290399,510,509,511
290403,523,509,513
290407,503,511,511
290411,507,513,512
290415,507,514,514
290419,510,508,513
290423,509,507,514
290427,510,513,515
290432,503,516,514
290436,505,516,515
290440,505,512,518
290444,510,509,519
290448,510,509,516
290452,513,515,517
290455,511,516,517
290459,508,514,517
290463,508,511,514
290467,509,509,513
290471,512,509,512
290476,529,507,510
290480,507,505,511
290484,498,511,513
290488,505,512,512
290492,513,510,510
290496,508,507,510
290500,508,506,511
290504,506,507,511
290508,504,514,508
290511,506,512,504
290515,507,507,505
290520,504,505,506
290524,507,506,508
290528,513,512,511
290532,514,508,509
290536,501,504,505
290540,500,505,500
290544,505,515,507
290548,511,517,508
290552,510,514,506
290556,510,507,504
290561,508,505,505
290565,508,510,507
290568,508,512,509
290572,504,510,508
290576,505,509,507
290580,511,508,505
290584,509,508,505
290588,511,511,506
290592,511,506,504
290596,512,502,502
290600,511,506,506
290605,519,506,504
290609,509,509,503
290613,501,510,505
290617,500,509,505
290621,508,511,501
290624,510,509,499
290628,509,509,501
290632,509,506,505
290636,508,506,505
290640,503,510,507
290644,509,511,507
290649,506,511,507
290653,505,505,505
290657,506,503,505
290661,510,507,506
290665,510,510,505
290669,513,508,503
290673,504,507,503
290677,501,506,504
290680,512,511,504
290684,517,509,504
290689,512,509,506
290693,501,503,506
290697,503,506,504
290701,510,510,506
290705,505,508,506
290709,508,504,504
290713,511,506,506
290717,506,507,507
290721,506,511,508
290725,515,515,509
290729,502,512,503
290734,499,509,505
290737,510,513,507
290741,507,516,509
290745,501,512,511
290749,505,509,513
290753,517,509,516
290757,509,514,516
290761,505,511,515
290765,512,508,516
290769,507,506,518
290774,500,503,514
290778,500,505,509
290782,510,504,506
290786,505,509,509
290789,522,506,509
290792,510,509,509
290796,516,511,511
290800,510,511,509
290804,502,507,503
290808,504,508,509
290812,503,511,513
290817,503,513,512
290821,508,508,508
290825,514,508,511
290829,499,509,512
290833,504,509,511
290837,503,513,511
290841,510,515,509
290844,508,506,511
290847,505,505,512
290851,521,504,510
290855,514,506,507
290860,501,506,505
290864,502,509,504
290868,510,504,503
290872,509,506,503
290876,512,510,504
290880,509,509,504
290884,507,508,504
290888,508,506,503
290892,516,510,504
290896,510,511,506
290899,512,508,505
290903,508,506,505
290907,508,508,505
290911,507,509,504
290915,510,509,505
290919,509,504,506
290923,502,506,507
290927,509,508,505
290931,515,512,505
290935,509,509,504
290939,506,507,506
290944,506,506,506
290948,503,506,504
290952,505,510,506
290955,506,508,505
290958,507,507,504
290962,507,506,506
290966,508,512,508
290970,507,516,509
290974,515,514,507
290978,519,513,506
290982,506,510,505
290987,509,513,503
290991,508,512,510
290995,503,506,510
290999,501,507,509
291003,502,509,508
291007,509,511,509
291010,516,512,510
291013,511,502,506
291017,507,501,508
291021,506,505,510
291025,512,509,511
291030,513,509,510
291034,515,505,507
291038,506,506,505
291042,510,508,507
291046,509,511,506
291050,507,511,506
291054,500,508,501
291058,503,507,500
291062,506,512,499
291065,511,512,510
291068,508,506,521
291073,501,505,519
291077,519,503,515
291081,504,513,512
291085,506,514,514
291089,511,508,512
291093,501,507,511
291097,505,506,507
291101,513,510,507
291105,516,510,505
291109,518,507,500
291113,506,507,501
291118,503,509,498
291121,513,509,501
291125,507,509,506
291129,500,510,508
291133,505,512,506
291137,506,511,504
291141,508,513,504
291145,511,511,498
291149,512,509,500
291153,497,502,507
291158,494,501,509
291162,509,505,513
291166,523,508,512
291170,533,504,507
291174,536,512,506
291177,505,518,498
291181,490,515,494
291185,487,505,503
291189,493,506,507
291193,506,513,514
291197,508,511,513
291202,510,513,514
291206,497,520,506
291210,515,513,492
291214,503,512,502
291218,508,515,515
291222,505,519,511
291226,500,508,519
291230,540,507,518
291233,545,513,510
291237,544,523,499
291241,535,517,501
291246,567,508,503
291250,589,511,492
291254,582,508,501
291258,555,507,491
291262,534,513,456
291266,566,506,448
291270,577,516,484
291274,527,516,545
291278,484,521,534
291282,528,512,522
291287,540,520,475
291290,464,533,456
291294,462,529,517
291298,484,499,542
291302,499,484,551
291306,541,488,546
291310,558,493,537
291314,547,507,522
291318,495,524,517
291322,475,519,504
291326,480,513,516
291331,526,488,513
291335,565,477,501
291339,560,501,522
291343,507,517,540
291346,461,518,536
291350,499,514,525
291354,498,514,521
291358,549,501,535
291362,516,493,536
291366,528,492,518
291371,495,495,501
291375,475,505,530
291379,487,508,529
291383,528,506,515
291387,508,521,551
291391,531,514,545
291395,522,499,520
291399,507,496,512
291402,451,515,530
291406,502,518,540
291410,535,511,551
291415,553,470,532
291419,516,499,538
291423,496,536,548
291427,484,541,540
291431,483,517,528
291435,499,509,536
291439,539,488,554
291443,512,487,542
291447,482,525,547
291451,514,518,548
291456,498,496,545
291459,475,521,576
291463,493,530,575
291467,526,518,569
291471,539,487,540
291475,515,464,509
291479,499,490,536
291483,478,498,532
291487,489,544,555
291491,526,544,583
291495,528,465,544
291500,529,477,510
291504,499,539,525
291508,493,576,587
291512,495,518,560
291515,493,497,559
291519,540,546,557
291523,502,548,566
291527,491,493,533
291531,500,541,536
291535,516,565,530
291539,527,460,451
291544,515,428,471
291548,508,530,559
291552,489,537,549
291556,486,546,573
291560,523,582,573
291564,544,530,527
291568,519,478,480
291571,508,492,511
291575,491,560,588
291579,499,577,559
291584,508,587,542
291588,521,527,507
291592,538,508,510
291596,515,479,477
291600,487,491,443
291604,497,533,483
291608,478,445,467
291612,473,462,488
291616,487,499,525
291620,484,495,518
291624,500,540,634
291628,501,573,609
291632,518,509,510
291636,498,484,451
291640,529,508,436
291644,521,522,489
291648,483,526,531
291652,483,544,524
291656,479,523,473
291660,493,497,484
291664,494,528,515
291668,506,560,502
291673,499,542,450
291677,502,558,513
291681,509,537,518
291684,498,556,569
291688,484,532,453
291692,486,493,451
291696,503,463,495
291700,515,457,513
291704,506,495,515
291708,497,537,455
291713,500,536,455
291717,504,510,475
291721,496,502,467
291725,508,518,514
291729,486,588,539
291733,496,612,531
291737,505,522,474
291740,492,448,415
291744,485,426,431
291748,492,534,536
291752,483,542,503
291757,494,518,487
291761,510,472,451
291765,514,487,487
291769,503,528,560
291773,521,521,480
291777,496,465,411
291781,489,537,496
291785,491,610,565
291789,502,498,507
291793,513,460,479
291796,506,491,486
291801,485,531,490
291805,494,574,500
291809,499,472,421
291813,520,484,460
291817,509,508,486
291821,483,545,517
291825,495,564,539
291829,493,543,526
291833,492,498,510
291837,501,481,465
291842,507,494,474
291846,506,513,479
291850,508,503,494
291853,507,472,460
291857,503,482,471
291861,513,551,520
291865,512,563,515
291869,506,570,515
291873,494,512,489
291877,484,528,483
291881,498,542,496
291886,515,463,479
291890,505,458,498
291894,495,548,609
291898,497,550,547
291902,494,497,444
291906,487,531,444
291909,485,526,469
291913,481,574,501
291917,490,544,518
291921,505,462,457
291926,526,461,476
291930,524,487,523
291934,514,497,522
291938,504,546,494
291942,498,525,459
291946,510,537,508
291950,509,565,540
291954,494,477,474
291958,481,457,464
291962,492,477,469
291965,524,493,478
291970,511,501,536
291974,498,562,560
291978,520,473,484
291982,517,463,508
291986,499,550,520
291990,500,506,504
291994,494,472,486
291998,501,474,490
292002,514,474,479
292006,507,489,489
292011,513,512,476
292015,506,539,552
292019,502,537,541
292022,495,539,502
292026,508,563,530
292030,522,531,483
292034,516,473,453
292038,527,539,505
292042,538,506,527
292046,503,450,466
292050,483,466,445
292055,501,465,446
292059,514,490,542
292063,513,493,500
292067,510,501,497
292071,503,524,505
292075,513,531,522
292078,499,523,552
292082,501,538,524
292086,506,541,547
292090,501,526,494
292094,513,501,461
292099,514,481,462
292103,501,511,474
292107,520,553,515
292111,509,583,520
292115,503,515,491
292119,503,477,501
292123,513,469,512
292127,513,463,489
292131,511,458,482
292134,496,465,484
292139,496,497,503
292143,518,516,539
292147,515,546,541
292151,504,528,506
292155,505,481,496
292159,478,510,516
292163,493,490,521
292167,509,538,538
292171,493,512,516
292175,500,497,523
292179,518,540,548
292184,529,523,477
292188,530,484,435
292191,505,459,475
292195,509,484,496
292199,505,527,505
292203,489,543,540
292207,519,545,553
292211,505,530,508
292215,504,469,454
292219,508,486,501
292224,513,464,495
292228,510,493,520
292232,510,539,581
292236,497,510,517
292240,500,517,488
292244,495,509,483
292247,499,499,466
292251,507,495,489
292255,507,464,485
292259,520,524,510
292263,512,567,537
292268,477,523,527
292272,505,482,500
292276,519,525,516
292280,504,542,499
292284,505,563,511
292288,524,457,481
292292,509,423,481
292296,514,434,494
292300,499,480,486
292303,505,513,527
292307,506,498,496
292312,505,543,503
292316,505,524,526
292320,507,548,547
292324,502,542,507
292328,520,474,460
292332,504,449,457
292336,497,456,463
292340,510,483,490
292344,513,540,542
292348,527,623,606
292353,508,596,559
292357,495,471,462
292360,509,426,452
292364,506,480,480
292368,515,482,468
292372,504,518,465
292376,487,496,516
292380,501,568,584
292384,497,472,513
292388,506,459,486
292392,530,521,496
292397,514,546,524
292401,504,495,487
292405,506,460,463
292409,499,450,468
292413,498,516,500
292416,504,598,549
292420,487,529,526
292424,497,472,473
292428,519,525,519
292432,527,509,510
292436,496,477,490
292441,480,505,554
292445,505,514,517
292449,507,514,480
292453,510,485,485
292457,514,525,558
292461,516,540,575
292465,515,508,535
292469,511,481,484
292472,508,502,481
292476,492,501,462
292481,494,483,464
292485,513,482,487
292489,503,497,493
292493,504,504,484
292497,522,498,491
292501,520,521,551
292505,494,521,545
292509,490,509,538
292513,512,523,526
292517,511,502,486
292521,501,507,495
292526,498,505,511
292529,509,522,545
292533,498,516,499
292537,485,524,474
292541,501,507,510
292545,505,555,534
292549,516,555,554
292553,502,497,507
292557,525,466,491
292561,504,457,473
292566,502,514,489
292570,511,517,494
292574,493,481,492
292578,504,553,541
292582,517,552,582
292585,510,543,557
292589,499,475,499
292593,496,487,485
292597,509,477,482
292601,496,473,503
292605,505,544,540
292610,503,522,525
292614,491,501,486
292618,501,470,481
292622,505,483,480
292626,507,480,489
292630,508,493,511
292634,505,525,497
292638,516,542,512
292641,496,482,505
292645,508,473,486
292649,499,518,515
292654,504,512,512
292658,512,488,506
292662,530,505,541
292666,512,583,612
292670,496,528,537
292674,490,486,460
292678,489,492,460
292682,499,487,491
292686,503,516,526
292690,501,483,494
292695,494,498,483
292698,505,529,499
292702,494,498,509
292706,491,501,511
292710,498,511,527
292714,509,512,532
292718,502,475,504
292722,496,535,537
292726,497,511,508
292730,503,530,555
292734,501,534,546
292739,491,464,467
292743,494,452,463
292747,513,492,526
292751,512,527,528
292754,503,484,493
292758,498,485,496
292762,488,525,518
292766,492,566,557
292770,504,521,508
292774,506,483,496
292779,487,484,483
292783,507,509,491
292787,506,513,483
292791,497,525,514
292795,502,538,530
292799,503,476,503
292803,488,461,500
292807,503,469,506
292810,496,544,556
292814,483,518,520
292818,482,562,549
292823,510,527,537
292827,520,500,508
292831,493,512,483
292835,497,502,482
292839,519,464,495
292843,500,510,507
292847,499,521,506
292851,498,498,479
292855,523,498,491
292859,518,529,514
292864,518,493,484
292867,482,495,496
292871,501,490,504
292875,517,479,509
292879,529,518,510
292883,491,525,517
292887,493,497,515
292891,510,508,538
292895,520,533,542
292899,517,528,541
292903,506,511,499
292908,505,501,486
292912,558,518,497
292916,519,528,513
292920,498,549,543
292923,536,518,515
292927,549,526,525
292931,521,518,507
292935,476,472,493
292939,506,477,486
292943,512,497,487
292947,498,538,525
292952,493,509,530
292956,495,503,519
292960,490,544,524
292964,523,546,558
292968,510,509,559
292972,495,479,498
292976,495,510,479
292979,484,466,471
292983,500,482,488
292987,517,505,480
292992,507,511,504
292996,545,512,513
293000,499,515,497
293004,498,516,501
293008,499,553,543
293012,491,530,527
293016,514,524,508
293020,497,514,495
293024,493,483,507
293028,527,514,523
293032,511,537,503
293036,513,493,506
293040,495,507,519
293044,494,510,500
293048,513,512,504
293052,513,498,535
293056,512,496,524
293060,525,497,482
293064,510,489,500
293068,528,530,522
293072,516,504,481
293076,518,512,501
293081,525,510,496
293085,515,522,509
293089,527,531,519
293092,524,528,490
293096,518,505,502
293100,524,500,533
293104,513,502,514
293108,515,509,490
293112,507,520,532
293116,505,516,524
293121,503,525,514
293125,518,528,545
293129,528,544,539
293133,517,483,479
293137,511,465,480
293141,515,504,522
293145,526,524,530
293148,537,500,511
293152,525,507,512
293156,529,533,522
293160,516,517,493
293165,501,514,523
293169,503,498,488
293173,505,480,481
293177,523,486,471
293181,537,478,472
293185,511,488,511
293189,516,503,513
293193,519,480,519
293197,511,504,503
293200,508,505,471
293203,530,546,483
293208,508,544,543
293212,511,502,535
293216,511,506,519
293220,507,525,523
293224,510,504,521
293228,518,488,518
293232,511,558,544
293236,508,523,501
293240,520,531,496
293244,532,479,488
293249,552,500,502
293253,538,492,509
293256,521,479,497
293259,513,528,519
293263,509,499,502
293267,525,484,519
293271,528,455,520
293275,532,527,547
293279,521,538,551
293283,504,493,485
293287,497,521,511
293292,514,539,534
293296,519,512,480
293300,498,524,470
293304,512,510,501
293308,508,517,519
293311,510,520,538
293314,511,499,542
293318,522,461,494
293322,509,461,484
293326,508,483,477
293330,521,544,541
293335,509,541,557
293339,517,497,504
293343,513,516,545
293347,498,547,541
293351,513,522,493
293355,517,497,456
293359,513,472,441
293363,497,489,494
293366,504,512,500
293369,511,523,489
293373,513,503,513
293378,528,491,531
293382,523,504,504
293386,509,516,503
293390,515,509,521
293394,508,510,557
293398,505,520,549
293402,519,476,487
293406,506,469,475
293410,512,503,487
293414,498,530,517
293419,524,511,525
293422,529,515,506
293425,498,507,491
293429,501,535,480
293433,503,524,506
293437,510,487,522
293441,506,468,503
293445,510,439,463
293449,514,460,457
293453,505,498,500
293457,512,503,525
293462,511,475,510
293466,501,551,570
293470,509,552,522
293474,512,507,484
293477,510,511,519
293481,508,506,510
293485,501,501,493
293489,501,512,520
293493,532,510,510
293497,523,507,537
293501,502,501,506
293506,512,503,497
293510,517,508,509
293514,507,506,497
293518,511,505,498
293522,520,510,496
293526,535,487,498
293530,509,483,483
293533,495,515,484
293537,508,495,501
293541,516,534,544
293545,518,553,564
293550,513,533,531
293554,506,530,538
293558,511,461,488
293562,517,465,485
293566,520,495,512
293570,518,541,507
293574,507,519,511
293578,511,493,512
293582,521,552,520
293586,503,547,499
293590,496,487,486
293594,504,478,496
293598,509,472,498
293602,536,499,508
293606,525,480,509
293610,500,510,530
293614,499,511,521
293618,510,505,535
293622,529,521,516
293626,522,537,496
293630,501,517,503
293635,498,528,561
293639,506,514,547
293643,507,516,505
293646,505,522,487
293650,506,505,493
293654,519,497,494
293658,519,523,525
293662,518,508,527
293666,510,513,501
293670,512,523,507
293675,512,485,482
293679,517,543,504
293683,522,526,536
293687,505,502,512
293691,498,512,540
293695,495,500,519
293699,503,494,486
293702,510,493,459
293706,505,532,515
293710,523,552,535
293714,536,537,525
293719,508,513,528
293723,480,513,521
293727,484,508,492
293731,503,489,493
293735,515,487,478
293739,516,503,506
293743,492,504,504
293747,492,536,560
293751,500,555,557
293755,503,561,512
293758,518,496,487
293763,533,457,480
293767,524,455,473
293771,514,500,512
293775,495,524,551
293779,495,492,518
293783,504,456,485
293787,487,461,485
293791,490,475,468
293795,501,507,502
293799,509,521,541
293804,523,519,550
293808,517,540,507
293812,503,538,503
293815,494,489,485
293819,499,514,506
293823,511,550,527
293827,500,488,486
293831,501,477,485
293835,499,480,503
293839,512,528,513
293843,500,510,510
293848,496,484,487
293852,495,483,489
293856,491,574,557
293860,507,550,578
293864,514,512,550
293868,519,486,495
293871,520,499,466
293875,504,537,481
293879,494,550,497
293883,504,537,516
293888,501,535,520
293892,510,509,507
293896,510,509,494
293900,508,476,500
293904,490,478,500
293908,498,507,509
293912,510,563,555
293916,510,574,522
293920,514,539,488
293924,510,524,532
293927,507,475,524
293932,497,470,500
293936,515,514,486
293940,509,491,467
293944,514,524,575
293948,506,489,541
293952,503,471,505
293956,501,516,523
293960,499,512,502
293964,492,488,465
293968,490,500,473
293972,498,506,480
293977,498,510,499
293981,498,544,492
293984,493,528,508
293988,500,550,515
293992,509,613,559
293996,505,548,558
294000,499,553,533
294004,496,505,474
294008,507,403,437
294012,530,467,483
294017,500,479,529
294021,497,469,599
294025,494,495,613
294029,500,465,471
294033,504,447,434
294037,511,526,468
294040,506,577,521
294044,503,577,520
294048,492,547,531
294052,493,471,467
294056,501,470,466
294061,505,433,475
294065,531,456,482
294069,509,490,492
294073,496,533,514
294077,502,500,494
294081,502,480,503
294085,520,549,569
294089,506,541,509
294093,505,501,495
294096,521,511,537
294100,533,526,547
294105,511,550,521
294109,493,571,528
294113,496,508,507
294117,513,550,507
294121,518,497,488
294125,514,481,474
294129,514,475,469
294133,497,466,483
294137,500,505,500
294141,508,560,517
294146,502,543,499
294150,507,536,523
294153,508,513,537
294157,514,466,496
294161,511,489,508
294165,509,521,512
294169,492,560,542
294173,500,573,503
294177,506,493,490
294181,505,474,508
294185,505,500,522
294190,502,554,523
294194,517,481,501
294198,517,454,487
294202,512,480,485
294206,524,494,492
294209,512,522,521
294213,507,557,551
294217,515,517,497
294221,511,502,491
294225,501,525,524
294230,512,524,522
294234,503,485,515
294238,510,496,510
294242,503,497,513
294246,506,482,526
294250,494,515,534
294254,513,529,544
294258,521,530,540
294262,511,465,461
294265,502,458,474
294269,497,465,480
294274,497,533,531
294278,513,536,517
294282,508,523,502
294286,508,507,511
294290,507,519,526
294294,514,519,530
294298,516,522,514
294302,506,533,506
294306,501,478,472
294310,494,475,506
294315,495,507,530
294319,509,503,536
294322,517,537,528
294326,517,493,453
294330,507,503,517
294334,503,550,542
294338,502,546,528
294342,511,532,514
294346,506,489,498
294350,504,491,492
294354,512,500,497
294359,515,489,491
294363,524,471,490
294367,522,500,519
294371,507,531,518
294375,521,545,532
294378,512,550,545
294382,505,536,539
294386,496,544,528
294390,503,525,523
294394,514,471,490
294398,499,458,481
294403,504,455,484
294407,500,518,542
294411,506,528,509
294415,518,545,478
294419,513,509,512
294423,502,508,547
294427,490,581,638
294431,511,576,555
294434,515,469,440
294438,505,459,422
294443,502,484,466
294447,507,464,479
294451,504,508,529
294455,514,530,545
294459,501,474,496
294463,492,485,519
294467,501,481,489
294471,508,485,496
294475,512,556,574
294479,513,597,569
294483,498,518,490
294488,493,538,528
294491,506,543,607
294495,522,525,532
294499,498,396,407
294503,499,391,419
294507,496,587,540
294511,512,545,514
294515,524,445,482
294519,513,476,502
294523,501,501,521
294528,497,489,486
294532,503,532,535
294536,505,570,516
294540,514,494,492
294544,518,480,471
294547,504,487,481
294551,502,538,568
294555,501,564,629
294559,506,479,488
294563,507,464,442
294567,505,499,493
294572,495,478,507
294576,507,501,545
294580,514,513,516
294584,521,553,538
294588,512,492,502
294592,505,443,475
294596,505,561,554
294600,507,565,500
294603,508,579,506
294607,527,529,498
294611,511,456,436
294616,497,456,471
294620,501,484,502
294624,511,519,516
294628,511,500,503
294632,511,552,536
294636,502,493,504
294640,512,455,478
294644,508,480,487
294648,495,530,584
294652,514,571,576
294657,516,568,523
294660,520,568,496
294664,511,516,458
294668,502,482,485
294672,507,477,502
294676,502,510,489
294680,511,564,532
294684,501,550,550
294688,502,520,586
294692,507,487,517
294696,509,458,443
294701,506,472,467
294705,505,554,486
294709,494,559,505
294713,502,467,511
294716,526,467,477
294720,513,522,528
294724,505,540,580
294728,515,497,535
294732,509,472,478
294736,494,478,483
294740,504,493,477
294745,502,569,540
294749,506,603,541
294753,515,505,480
294757,512,459,484
294761,517,489,506
294765,505,500,513
294769,484,483,506
294772,490,438,425
294776,488,550,531
294780,510,581,568
294785,513,583,632
294789,502,511,524
294793,500,487,450
294797,505,443,457
294801,502,493,499
294805,504,486,508
294809,508,545,619
294813,508,600,540
294817,510,531,433
294821,506,460,429
294825,506,458,440
294829,501,517,504
294833,495,540,524
294837,500,459,464
294841,509,495,508
294845,509,478,522
294849,503,491,554
294853,498,528,512
294857,508,504,422
294861,502,523,488
294865,497,494,518
294870,499,510,532
294874,508,512,564
294878,513,537,582
294882,509,511,549
294885,506,462,512
294889,503,525,506
294893,506,576,486
294897,512,526,444
294901,515,491,498
294905,502,471,464
294909,500,481,441
294914,507,573,587
294918,509,524,532
294922,512,454,462
294926,513,462,445
294930,501,563,495
294934,505,508,514
294938,510,488,498
294941,500,486,536
294945,503,541,552
294949,497,474,474
294953,503,467,511
294958,507,566,572
294962,506,560,515
294966,506,496,491
294970,523,475,500
294974,519,537,562
294978,515,557,527
294982,504,502,448
294986,500,484,462
294990,500,518,477
294994,515,481,486
294998,514,464,515
295002,495,535,560
295006,499,584,591
295010,503,503,491
295014,505,503,482
295018,502,465,506
295022,510,521,564
295026,509,559,514
295030,517,510,449
295034,502,455,454
295038,499,515,523
295043,491,569,586
295047,489,517,489
295051,495,536,483
295054,514,502,474
295058,508,504,511
295062,503,583,558
295066,505,490,495
295070,517,456,477
295074,504,434,490
295078,506,555,584
295083,512,543,508
295087,509,499,460
295091,513,504,465
295095,506,464,469
295099,502,457,519
295103,505,506,465
295107,507,536,484
295110,505,575,535
295114,506,518,514
295118,511,480,501
295122,507,490,479
295127,509,527,517
295131,510,488,517
295135,510,453,521
295139,510,552,566
295143,511,586,556
295147,497,538,518
295151,506,507,502
295155,508,486,491
295159,506,498,501
295163,504,577,526
295166,515,561,488
295171,510,508,461
295175,511,474,453
295179,515,496,494
295183,517,559,578
295187,500,593,528
295191,497,509,463
295195,507,416,430
295199,510,478,459
295203,516,550,575
295207,508,524,552
295212,504,501,481
295216,502,508,492
295220,503,523,607
295223,503,539,534
295227,498,484,466
295231,510,471,460
295235,508,389,416
295239,496,512,542
295243,505,597,615
295247,506,641,657
295251,500,576,552
295256,513,477,447
295260,516,476,440
295264,511,435,453
295268,504,464,465
295272,494,509,467
295276,501,545,531
295279,512,492,527
295283,520,499,526
295287,506,500,538
295291,505,468,500
295296,498,503,488
295300,495,480,476
295304,508,488,542
295308,511,533,602
295312,498,562,559
295316,496,563,538
295320,505,507,453
295324,500,487,464
295328,509,512,502
295332,507,523,508
295335,510,463,486
295340,514,468,483
295344,502,506,494
295348,496,522,485
295352,502,563,548
295356,514,500,532
295360,521,472,501
295364,516,511,494
295368,515,518,560
295372,507,494,503
295376,499,500,485
295380,500,475,495
295385,515,499,547
295389,521,553,602
295392,506,558,527
295396,497,485,433
295400,511,482,466
295404,512,486,478
295408,512,488,525
295412,506,550,546
295416,511,544,531
295420,509,527,507
295425,503,452,497
295429,525,478,510
295433,508,507,486
295437,497,585,548
295441,510,527,556
295445,505,529,560
295448,511,542,571
295452,514,522,553
295456,518,541,564
295460,516,491,486
295464,513,467,464
295469,516,548,604
295473,524,603,579
295477,513,495,428
295481,500,468,413
295485,500,493,444
295489,502,536,498
295493,504,519,521
295497,508,507,526
295501,504,435,480
295504,503,444,478
295508,522,554,570
295513,515,568,580
295517,507,488,480
295521,516,521,542
295525,532,561,553
295529,505,543,536
295533,504,505,520
295537,495,511,567
295541,496,519,537
295545,502,440,442
295549,513,453,476
295554,524,541,538
295557,501,589,576
295561,490,505,475
295565,503,458,411
295569,503,489,478
295573,498,534,529
295577,504,460,448
295581,504,469,491
295585,513,475,504
295589,513,471,476
295593,511,583,639
295598,505,651,678
295602,493,486,466
295606,506,445,429
295610,520,426,486
295613,525,509,523
295617,523,503,485
295621,501,506,483
295625,491,520,488
295629,498,532,499
295633,505,496,464
295638,501,507,476
295642,504,531,520
295646,513,514,506
295650,527,521,563
295654,508,597,634
295658,507,527,510
295662,491,464,454
295666,495,449,402
295669,511,527,517
295673,513,560,534
295677,509,521,574
295682,513,506,524
295686,504,456,445
295690,509,431,422
295694,511,486,474
295698,510,475,476
295702,514,521,514
295706,507,564,535
295710,497,544,530
295714,497,510,509
295718,505,520,477
295723,522,529,483
295726,512,516,509
295730,510,508,544
295734,493,528,569
295738,497,539,496
295742,509,505,501
295746,504,483,526
295750,512,498,514
295754,506,513,511
295758,499,561,536
295762,516,562,559
295767,506,493,494
295771,510,496,465
295775,500,485,436
295779,499,484,444
295782,508,488,489
295786,508,497,513
295790,509,522,486
295794,509,562,548
295798,503,516,529
295802,502,464,504
295806,508,512,551
295811,508,530,538
295815,496,519,510
295819,501,526,505
295823,521,482,467
295827,515,475,484
295831,499,447,475
295835,498,482,514
295838,495,528,534
295842,507,545,512
295846,505,504,484
295851,511,483,488
295855,515,498,493
295859,509,543,511
295863,495,581,491
295867,498,483,507
295871,497,463,506
295875,498,496,519
295879,503,544,533
295883,506,510,544
295887,500,523,527
295891,495,483,486
295895,504,485,472
295899,507,513,500
295903,505,485,479
295907,503,522,531
295911,502,516,550
295915,506,535,559
295919,502,529,543
295923,506,538,503
295927,504,497,467
295931,508,470,452
295936,528,462,413
295940,519,516,473
295944,532,508,525
295948,513,490,513
295951,512,521,513
295955,507,501,484
295959,499,495,504
295963,502,512,529
295967,502,504,537
295971,523,491,520
295975,511,519,485
295980,497,505,475
295984,495,494,480
295988,504,525,547
295992,511,525,568
295996,506,523,515
296000,501,471,493
296004,493,497,482
296007,505,511,510
296011,513,491,494
296015,518,501,489
296019,514,505,490
296024,505,508,507
296028,511,529,523
296032,519,521,497
296036,516,530,500
296040,516,522,524
296044,508,519,541
296048,501,530,542
296052,511,486,450
296056,507,486,492
296060,501,480,521
296064,499,453,504
296068,516,475,492
296072,518,523,528
296076,512,535,525
296080,513,535,545
296084,502,557,546
296088,494,489,504
296092,504,470,490
296096,499,472,502
296100,510,500,500
296104,533,527,555
296109,509,574,568
296113,501,516,492
296117,503,476,479
296120,513,470,497
296124,515,493,493
296128,507,511,490
296132,512,496,491
296136,515,516,518
296140,504,453,490
296144,503,494,531
296148,501,533,509
296153,500,543,454
296157,506,549,529
296161,509,487,505
296165,509,486,505
296169,509,533,543
296173,509,542,550
296176,516,543,539
296180,501,511,504
296184,516,485,480
296188,503,469,454
296193,503,485,456
296197,510,467,528
296201,513,567,575
296205,503,528,539
296209,507,477,493
296213,508,491,534
296217,508,490,539
296221,517,513,520
296225,510,511,532
296229,507,534,517
296232,499,524,496
296237,503,514,465
296241,502,550,509
296245,511,539,553
296249,511,511,535
296253,516,492,498
296257,512,492,498
296261,507,502,505
296265,502,491,463
296269,502,504,490
296273,497,530,532
296278,503,542,573
296282,507,504,500
296286,510,494,474
296289,510,501,492
296293,513,496,522
296297,521,483,483
296301,513,523,498
296305,511,501,487
296309,505,485,508
296313,505,557,559
296317,509,534,511
296322,511,528,495
296326,510,505,476
296330,507,487,479
296334,506,480,520
296338,510,518,528
296342,517,495,503
296345,525,474,487
296349,511,481,489
296353,506,512,557
296357,510,525,509
296361,519,536,512
296366,515,535,526
296370,514,492,517
296374,511,488,491
296378,502,534,544
296382,505,523,527
296386,506,501,508
296390,510,500,507
296394,517,489,506
296398,504,483,500
296401,508,511,490
296406,502,503,500
296410,500,504,500
296414,502,518,524
296418,515,538,513
296422,505,519,499
296426,509,515,502
296430,490,508,543
296434,508,492,536
296438,514,532,518
296442,514,497,495
296446,498,482,510
296451,496,493,538
296455,510,478,519
296458,510,479,495
296462,508,498,509
296466,513,514,499
296470,509,501,487
296474,511,529,518
296478,508,535,509
296482,508,500,502
296486,524,527,503
296491,506,531,542
296495,499,507,544
296499,508,548,540
296503,511,517,499
296507,504,519,508
296511,500,505,504
296514,499,482,490
296518,511,495,507
296522,516,493,520
296526,506,546,535
296530,506,487,487
296535,508,476,501
296539,504,536,538
296543,510,489,488
296547,503,503,512
296551,506,559,546
296555,504,547,514
296559,510,543,523
296563,510,514,495
296567,506,501,491
296570,504,496,485
296574,507,524,504
296579,510,500,503
296583,508,472,475
296587,524,488,511
296591,523,530,552
296595,505,551,582
296599,511,527,526
296603,498,507,471
296607,507,488,468
296611,505,495,512
296615,516,529,538
296620,514,514,519
296624,502,493,488
296627,511,526,502
296631,516,559,529
296635,504,522,497
296639,497,495,484
296643,492,526,532
296647,500,547,528
296651,514,501,465
296655,517,485,485
296659,509,464,491
296664,504,483,507
296668,506,509,501
296672,519,532,498
296676,516,540,520
296680,502,552,526
296683,506,524,514
296687,512,512,521
296691,519,520,536
296695,506,503,497
296699,496,465,466
296704,507,471,481
296708,510,535,530
296712,507,539,533
296716,507,517,502
296720,502,506,497
296724,501,526,539
296728,505,510,536
296732,503,502,473
296736,504,508,501
296739,499,501,522
296743,517,472,507
296748,517,498,539
296752,516,524,538
296756,508,503,508
296760,500,532,516
296764,510,541,537
296768,513,491,508
296772,496,491,475
296776,502,498,485
296780,503,505,516
296784,510,514,520
296788,507,526,491
296793,504,535,524
296796,509,519,546
296800,509,490,525
296804,508,517,507
296808,514,488,507
296812,524,500,487
296816,505,498,500
296820,502,514,505
296824,495,551,523
296828,506,526,529
296833,509,500,527
296837,518,515,542
296841,518,472,497
296845,518,511,487
296849,518,511,498
296852,505,500,505
296856,505,513,503
296860,508,528,517
296864,507,564,531
296868,494,507,496
296872,509,487,507
296877,504,528,516
296881,502,485,491
296885,509,490,516
296889,513,532,526
296893,502,560,528
296897,500,545,537
296901,503,502,510
296905,508,498,488
296908,504,516,472
296912,502,512,505
296916,506,489,511
296921,512,481,502
296925,517,508,518
296929,513,505,503
296933,516,518,501
296937,519,540,537
296941,511,521,524
296945,508,501,515
296949,508,494,499
296953,497,480,523
296957,494,489,507
296962,509,581,580
296965,524,542,508
296969,513,468,458
296973,506,474,472
296977,514,498,495
296981,512,584,619
296985,505,545,537
296989,497,460,465
296993,498,487,475
296997,506,512,501
297001,512,481,505
297006,505,480,494
297010,513,510,495
297014,511,521,496
297018,510,505,530
297021,515,513,559
297025,515,576,551
297029,497,539,515
297033,501,477,486
297037,500,460,473
297041,505,510,523
297046,512,542,586
297050,520,535,542
297054,510,536,516
297058,505,498,483
297062,506,509,498
297066,503,540,495
297070,501,499,501
297074,503,493,505
297077,507,517,488
297081,507,537,489
297085,500,532,508
297090,497,505,495
297094,507,498,512
297098,511,479,528
297102,514,478,535
297106,512,494,541
297110,519,498,532
297114,517,515,521
297118,510,554,569
297122,525,553,534
297126,527,497,488
297131,516,507,510
297134,508,501,499
297138,497,521,491
297142,502,518,495
297146,515,526,493
297150,505,516,475
297154,507,489,502
297158,511,489,507
297162,495,503,479
297166,490,537,524
297170,501,504,501
297175,496,486,485
297179,503,519,541
297183,506,528,554
297187,512,509,525
297190,511,490,512
297194,515,501,504
297198,502,523,518
297202,502,540,563
297206,500,533,538
297210,507,541,500
297214,514,463,446
297219,518,487,468
297223,504,507,489
297227,499,527,502
297231,501,499,493
297235,507,531,512
297239,506,529,508
297243,507,515,509
297247,502,510,501
297251,500,499,510
297255,496,503,485
297260,497,535,505
297264,503,529,545
297268,511,487,497
297272,511,480,481
297276,507,515,508
297280,512,520,490
297284,515,522,478
297288,508,517,543
297292,505,512,514
297296,511,518,524
297299,502,517,524
297304,512,481,480
297308,515,468,502
297312,517,499,507
297316,522,517,504
297320,505,478,487
297324,498,488,469
297328,498,541,486
297332,501,504,507
297336,500,508,530
297340,506,556,525
297345,512,525,487
297349,508,484,475
297353,508,471,487
297356,501,498,537
297360,514,499,528
297364,507,526,533
297368,505,552,532
297372,504,539,519
297376,508,509,519
297380,511,502,529
297384,504,541,502
297389,504,494,465
297393,512,469,472
297397,524,459,482
297401,505,507,471
297405,498,546,521
297409,495,505,504
297412,492,507,523
297416,500,481,521
297420,500,484,544
297424,498,512,538
297428,507,531,521
297433,504,496,508
297437,505,556,543
297441,502,536,530
297445,511,516,492
297449,514,488,471
297453,513,517,526
297457,505,481,488
297461,511,463,511
297465,500,485,504
297468,503,507,485
297473,503,509,499
297477,492,545,529
297481,502,553,532
297485,492,516,513
297489,496,484,530
297493,506,455,483
297497,501,474,487
297501,498,496,525
297505,500,498,520
297509,503,493,512
297513,498,508,509
297518,498,482,497
297522,503,472,493
297525,509,575,519
297529,508,518,512
297533,504,481,507
297537,511,500,524
297541,504,494,527
297545,495,525,513
297549,499,513,477
297553,495,521,492
297558,509,492,536
297562,504,477,522
297566,524,537,550
297570,500,493,499
297574,492,481,478
297578,498,503,484
297581,504,505,512
297585,499,515,525
297589,502,545,532
297593,507,552,550
297597,513,461,474
297602,508,463,473
297606,498,517,504
297610,503,536,524
297614,518,556,529
297618,529,548,561
297622,515,515,525
297626,509,474,481
297630,504,454,477
297634,505,487,487
297637,512,516,500
297641,515,529,522
297646,516,518,517
297650,519,506,503
297654,511,490,472
297658,508,500,514
297662,502,518,553
297666,517,534,514
297670,528,511,501
297674,515,492,512
297678,506,536,516
297682,508,533,511
297687,511,513,536
297691,523,471,484
297694,517,494,493
297698,515,519,504
297702,507,525,498
297706,513,556,529
297710,512,484,522
297714,520,466,509
297718,516,484,533
297722,509,485,506
297726,509,529,517
297731,527,529,521
297735,525,505,492
297739,515,495,481
297743,508,493,509
297747,508,524,543
297750,513,492,514
297754,516,483,505
297758,509,492,502
297762,519,517,515
297766,513,551,529
297771,527,547,549
297775,519,474,511
297779,510,449,496
297783,514,471,490
297787,514,496,509
297791,518,533,535
297795,516,505,507
297799,521,516,518
297803,514,524,484
297806,526,489,476
297810,518,515,526
297815,515,509,534
297819,511,470,516
297823,515,455,501
297827,516,510,508
297831,532,521,512
297835,534,523,523
297839,515,491,525
297843,509,473,491
297847,512,465,469
297851,513,482,484
297856,515,541,529
297860,515,514,507
297863,520,492,502
297867,517,523,513
297871,499,533,541
297875,502,502,520
297879,504,505,509
297883,512,510,496
297887,518,505,500
297891,508,482,482
297895,524,505,498
297900,523,509,497
297904,508,526,514
297908,497,535,527
297912,498,509,493
297916,517,502,508
297919,510,518,520
297923,516,491,505
297927,508,455,508
297931,506,516,539
297935,506,503,516
297939,503,511,507
297944,505,533,543
297948,509,525,521
297952,511,524,517
297956,522,518,491
297960,513,494,482
297964,508,517,524
297968,502,518,510
297972,500,496,513
297975,495,487,511
297979,507,511,518
297984,506,521,517
297988,506,507,489
297992,513,513,486
297996,493,512,520
298000,501,483,523
298004,503,471,499
298008,507,491,498
298012,501,519,527
298016,507,544,540
298020,506,508,505
298024,500,474,522
298029,498,503,528
298032,501,526,502
298036,509,515,506
298040,507,507,498
298044,511,510,487
298048,503,504,489
298052,497,503,512
298056,503,517,527
298060,507,498,484
298064,492,524,486
298068,501,544,518
298073,504,523,511
298077,501,495,490
298081,510,488,460
298085,506,524,536
298088,500,513,545
298092,513,511,527
298096,499,534,524
298100,499,505,480
298104,512,485,475
298108,508,475,476
298113,517,499,511
298117,506,521,535
298121,500,521,491
298125,506,482,473
298129,509,510,512
298133,510,553,536
298137,510,517,507
298141,508,497,485
298144,505,506,504
298148,498,499,515
298152,502,498,510
298157,514,509,529
298161,517,554,555
298165,509,522,497
298169,502,483,481
298173,508,493,481
298177,509,518,495
298181,516,508,504
298185,522,509,515
298189,510,511,504
298193,507,515,500
298198,498,537,537
298201,501,507,508
298205,501,486,488
298209,507,517,484
298213,509,491,496
298217,503,504,509
298221,507,497,509
298225,497,511,522
298229,496,536,511
298233,505,527,518
298237,509,479,498
298242,511,478,501
298246,506,494,504
298250,511,522,533
298254,510,513,513
298257,514,526,493
298261,507,555,534
298265,504,497,492
298269,505,503,517
298273,507,496,507
298277,498,491,474
298281,501,507,521
298286,507,515,554
298290,509,482,510
298294,513,482,486
298298,517,496,477
298302,503,496,521
298306,505,504,530
298310,505,522,531
298313,502,509,525
298317,512,520,520
298321,499,528,484
298326,496,500,466
298330,500,507,503
298334,508,503,515
298338,505,496,523
298342,504,503,494
298346,516,530,507
298350,503,538,502
298354,496,521,511
298358,498,506,503
298362,506,503,504
298366,512,509,511
298370,511,526,532
298374,511,535,520
298378,502,515,500
298382,507,458,503
298386,503,484,493
298390,513,525,511
298394,515,501,522
298398,514,495,503
298402,506,501,480
298406,499,531,520
298411,503,517,498
298415,505,509,519
298419,508,498,504
298423,501,490,480
298426,508,514,514
298430,510,506,515
298434,498,503,505
298438,497,517,505
298442,503,523,507
298446,515,497,495
298450,512,508,492
298455,508,536,530
298459,508,529,516
298463,510,514,484
298467,511,503,516
298471,511,519,546
298475,500,519,537
298479,513,511,501
298482,511,494,488
298486,513,500,501
298490,515,515,516
298494,502,501,522
298499,515,518,498
298503,509,509,492
298507,518,509,496
298511,511,516,507
298515,502,487,512
298519,507,489,531
298523,509,510,515
298527,509,492,479
298531,493,478,507
298535,502,536,541
298539,507,517,503
298543,511,492,473
298547,514,507,506
298551,503,511,497
298555,512,506,496
298559,507,501,491
298563,515,511,539
298567,518,499,519
298571,504,537,537
298575,505,533,513
298579,514,506,483
298584,507,521,518
298588,501,508,518
298592,510,502,480
298595,514,479,477
298599,504,506,504
298603,499,526,519
298607,512,524,492
298611,506,537,521
298615,496,526,558
298619,498,527,549
298624,507,497,503
298628,507,502,499
298632,501,522,502
298636,503,492,505
298640,508,494,500
298644,509,507,508
298648,501,504,542
298651,498,490,521
298655,509,508,511
298659,507,548,557
298663,503,532,508
298668,501,503,464
298672,511,503,479
298676,499,510,515
298680,494,522,525
298684,500,512,500
298688,502,496,511
298692,504,530,518
298696,506,527,522
298700,515,496,515
298704,510,516,508
298707,500,519,525
298712,503,486,508
298716,499,507,512
298720,504,531,538
298724,502,496,518
298728,513,523,519
298732,512,523,493
298736,518,537,499
298740,507,492,520
298744,500,503,495
298748,509,506,489
298753,509,483,495
298757,506,441,503
298761,510,470,532
298764,510,514,541
298768,517,536,524
298772,502,542,547
298776,506,535,515
298780,507,509,488
298784,502,486,480
298788,503,486,483
298792,502,505,519
298797,512,525,521
298801,517,500,490
298805,512,499,496
298809,509,507,516
298813,514,537,524
298817,511,517,521
298820,506,487,511
298824,502,497,510
298828,502,510,521
298832,505,543,529
298836,499,512,515
298841,502,510,530
298845,509,523,522
298849,515,499,490
298853,512,510,508
298857,500,499,491
298861,493,499,485
298865,500,523,515
298869,511,517,508
298873,521,541,537
298876,523,499,524
298881,514,490,493
298885,506,508,522
298889,502,479,521
298893,504,501,530
298897,501,518,507
298901,500,527,491
298905,510,520,505
298909,508,523,520
298913,511,505,513
298917,503,502,502
298921,500,495,511
298926,506,513,521
298930,513,508,513
298933,511,490,503
298937,502,513,512
298941,497,514,523
298945,505,469,514
298949,507,517,536
298953,503,504,503
298957,513,475,489
298961,506,496,504
298966,513,557,522
298970,521,526,520
298974,511,498,493
298978,506,505,509
298982,518,487,493
298985,508,526,536
298988,504,515,467
298992,500,511,495
298996,504,488,515
299000,507,494,501
299004,513,465,491
299009,506,514,523
299013,504,529,519
299017,506,516,505
299021,501,532,508
299025,500,493,532
299029,502,508,508
299033,500,516,483
299037,501,524,510
299040,509,493,511
299043,516,499,525
299047,518,515,523
299052,515,501,474
299056,510,494,479
299060,504,469,514
299064,509,528,570
299068,510,539,522
299072,505,542,513
299076,509,504,503
299080,518,459,457
299084,517,495,500
299088,513,513,545
299092,514,511,518
299096,503,514,508
299099,503,519,490
299103,509,518,490
299107,508,513,494
299111,502,484,500
299115,516,518,510
299119,509,511,471
299123,507,498,491
299127,500,540,522
299131,513,530,515
299136,512,515,516
299140,507,502,508
299144,504,540,526
299148,510,522,499
299151,512,504,503
299154,519,507,502
299158,521,516,502
299162,511,523,489
299166,512,512,501
299170,498,516,511
299174,507,501,504
299179,507,504,490
299183,509,548,511
299187,506,528,515
299191,513,500,510
299195,512,487,492
299199,506,492,484
299203,507,501,495
299206,500,514,499
299209,497,518,529
299213,505,530,542
299217,503,483,481
299222,502,522,503
299226,507,554,539
299230,510,529,532
299234,511,524,513
299238,511,490,476
299242,508,509,490
299246,510,536,528
299250,503,507,536
299254,506,522,506
299258,510,514,490
299261,504,525,507
299265,498,501,501
299269,506,511,504
299273,507,499,491
299277,501,507,508
299281,517,514,543
299285,515,498,538
299289,509,483,485
299293,511,508,484
299297,518,510,496
299301,509,482,522
299305,503,496,515
299310,510,530,523
299314,507,516,498
299317,505,494,472
299321,501,520,460
299325,508,500,509
299329,503,493,541
299333,514,479,497
299337,515,488,498
299341,514,490,515
299345,495,485,540
299350,494,561,532
299354,502,546,504
299358,506,511,510
299362,497,506,504
299366,508,537,517
299370,508,529,509
299373,506,504,470
299377,504,472,492
299381,505,509,520
299385,510,490,516
299389,509,498,510
299394,502,509,487
299398,511,520,481
299402,528,512,494
299406,510,528,526
299410,497,551,558
299414,494,562,580
299418,500,494,528
299422,501,473,505
299426,504,472,491
299429,517,480,492
299433,507,497,488
299438,500,539,507
299442,507,512,513
299446,513,510,517
299450,506,506,516
299454,502,521,523
299458,519,517,516
299462,519,519,504
299466,507,510,504
299470,504,527,517
299474,511,539,516
299479,506,527,515
299483,504,507,506
299486,508,505,508
299490,509,512,493
299494,501,518,495
299498,500,516,502
299502,503,516,508
299506,503,505,509
299510,504,494,505
299514,508,509,515
299518,515,522,501
299523,518,519,476
299527,516,530,478
299531,516,533,501
299535,510,530,530
299539,514,508,527
299542,513,502,526
299546,504,504,524
299550,504,504,515
299554,504,500,499
299558,507,500,484
299563,504,506,489
299567,505,500,486
299571,507,491,496
299575,511,495,488
299579,525,497,483
299583,519,498,487
299587,508,493,485
299591,502,495,486
299595,509,497,487
299598,526,506,485
299602,515,507,482
299607,499,503,483
299611,496,508,483
299615,497,514,475
299619,499,513,479
299623,503,518,484
299627,498,515,479
299631,497,511,471
299635,501,511,481
299639,502,510,488
299643,501,507,480
299648,499,506,490
299652,499,501,498
299655,501,497,498
299659,503,501,502
299663,511,501,500
299667,499,502,485
299671,495,511,475
299675,497,512,484
299679,491,496,482
299683,491,496,482
299687,496,501,489
299692,498,504,499
299696,502,499,497
299700,501,497,494
299704,499,493,495
299708,497,494,494
299711,502,500,494
299715,509,501,493
299719,505,497,492
299723,505,493,492
299727,509,490,491
299731,508,490,491
299736,510,489,492
299740,504,486,493
299744,501,485,495
299748,496,489,492
299752,508,486,486
299756,514,486,490
299760,501,489,496
299764,494,489,493
299767,500,489,488
299771,510,493,484
299776,508,493,483
299780,508,487,481
299784,511,483,494
299788,512,482,505
299792,509,484,507
299796,506,486,501
299800,503,485,501
299804,512,488,497
299808,509,492,495
299812,517,493,495
299816,511,493,498
299821,504,492,500
299824,509,495,500
299828,526,496,497
299832,519,497,496
299836,506,498,498
299840,506,500,498
299844,506,502,499
299848,503,504,500
299852,507,504,499
299856,507,501,498
299860,510,499,499
299865,511,497,499
299869,507,500,503
299873,501,501,509
299877,503,499,502
299880,506,498,500
299884,510,503,505
299888,512,508,507
299892,515,506,507
299896,506,501,503
299900,509,500,510
299905,511,502,512
299909,512,507,514
299913,506,504,516
299917,503,504,514
299921,510,506,513
299925,511,509,512
299929,508,511,513
299933,510,508,509
299936,504,506,507
299940,506,507,511
299944,508,512,512
299949,513,514,508
299953,510,517,514
299957,505,516,515
299961,508,511,507
299965,512,505,504
299969,506,501,504
299973,512,505,510
299977,511,511,522
299981,514,516,521
299985,509,517,520
299990,505,514,517
299993,504,512,518
299997,504,514,519
300001,503,517,516
300005,504,519,517
300009,504,516,519
300013,508,512,520
300017,513,512,517
300021,509,516,513
300025,510,518,515
300029,509,517,516
300034,498,515,519
300038,502,514,520
300042,504,513,518
300046,508,512,523
300049,508,509,525
300053,508,508,527
300057,509,509,526
300061,512,511,515
300065,508,515,512
300069,509,514,518
300073,515,508,515
300078,510,505,509
300082,501,513,516
300086,503,511,527
300090,496,508,526
300094,509,510,521
300098,511,510,522
300102,509,512,520
300105,509,514,519
300109,512,515,521
300113,520,516,516
300118,515,518,519
300122,509,518,520
300126,506,511,515
300130,505,509,514
300134,510,512,513
300138,513,517,516
300142,509,517,517
300146,507,512,519
300150,506,509,518
300154,509,513,518
300158,510,516,519
300162,512,513,518
300166,502,511,517
300170,504,513,519
300174,511,515,520
300178,510,513,521
300182,511,509,518
300186,503,511,514
300190,505,512,515
300194,510,516,521
300198,513,516,522
300203,509,514,523
300207,510,514,522
300211,511,520,526
300215,513,519,525
300218,507,517,521
300222,509,516,521
300226,508,515,521
300230,508,517,522
300234,509,520,521
300238,504,518,520
300242,511,514,520
300247,508,515,520
300251,510,516,520
300255,511,519,519
300259,509,519,518
300263,508,515,519
300267,506,513,520
300271,511,516,520
300274,510,517,521
300278,506,517,523
300282,506,515,524
300286,509,514,524
300291,508,515,524
300295,512,514,522
300299,511,510,519
300303,508,509,518
300307,504,511,519
300311,507,513,521
300315,505,512,521
300319,513,509,519
300323,512,508,518
300327,512,510,519
300331,515,513,521
300335,520,515,522
300339,509,512,521
300343,502,509,523
300347,507,509,523
300351,507,509,521
300355,509,507,519
300359,506,507,519
300363,503,511,518
300367,507,514,518
300371,513,512,519
300376,506,510,518
300380,504,508,515
300384,507,510,514
300387,511,514,515
300391,516,515,517
300395,513,509,520
300399,510,508,519
300403,506,511,516
300407,511,516,514
300411,522,516,515
300416,515,513,516
300420,508,514,519
300424,506,518,520
300428,509,519,522
300432,509,516,521
300436,510,514,518
300440,507,514,518
300443,506,513,515
300447,512,517,515
300451,512,518,512
300455,507,516,511
300460,506,511,517
300464,513,514,517
300468,511,516,516
300472,509,513,515
300476,509,514,515
300480,513,514,514
300484,509,513,514
300488,508,515,515
300492,507,512,515
300496,503,511,513
300499,508,516,513
300504,510,517,513
300508,506,516,514
300512,503,512,515
300516,503,510,513
300520,506,513,510
300524,506,515,511
300528,506,514,512
300532,505,512,513
300536,502,512,514
300540,508,515,514
300545,510,517,513
300549,511,516,513
300553,505,514,515
300556,497,513,515
300560,503,515,513
300564,512,517,513
300568,509,517,514
300572,508,513,516
300576,507,514,516
300580,510,517,514
300584,506,520,512
300589,507,519,511
300593,507,514,510
300597,507,514,514
300601,509,513,516
300605,511,509,515
300609,506,507,513
300612,506,509,512
300616,506,512,514
300620,508,512,515
300624,507,510,516
300628,510,508,514
300633,507,506,513
300637,504,507,513
300641,507,510,514
300645,505,509,515
300649,506,508,516
300653,506,507,516
300657,513,507,517
300661,512,508,516
300665,507,508,515
300669,503,509,512
300674,503,511,511
300678,506,514,512
300682,505,512,512
300686,503,510,510
300690,501,510,511
300694,505,513,512
300698,514,517,512
300702,512,516,513
300706,514,513,514
300710,509,514,516
300715,506,515,516
300719,508,515,515
300722,506,514,515
300726,504,514,516
300730,502,514,514
300734,510,516,512
300738,511,517,512
300742,507,512,510
300746,505,508,511
300750,513,510,510
300754,514,515,511
300759,506,516,511
300763,501,513,509
300767,503,510,511
300771,505,510,512
300775,506,511,511
300778,506,510,509
300782,503,507,509
300786,501,506,508
300790,505,510,507
300794,509,514,509
300798,509,509,508
300803,506,507,509
300807,507,509,510
300811,513,511,510
300815,509,512,508
300819,503,512,506
300823,505,508,509
300827,507,508,511
300831,511,512,510
300834,508,517,511
300838,508,514,513
300843,507,511,513
300847,508,512,512
300851,507,511,513
300855,509,512,512
300859,500,512,513
300863,505,510,514
300867,509,510,514
300871,515,511,513
300875,514,513,512
300879,510,512,511
300883,506,510,511
300888,506,510,510
300891,510,515,510
300895,508,519,511
300899,505,519,512
300903,502,517,511
300907,508,515,509
300911,513,516,508
300915,509,515,506
300919,508,516,507
300923,508,516,508
300928,512,516,505
300932,516,516,505
300936,511,516,505
300940,504,514,508
300944,506,515,511
300947,510,515,507
300951,514,513,507
300955,508,510,506
300959,509,510,506
300963,508,514,508
300967,508,519,511
300972,506,516,513
300976,502,510,509
300980,510,510,506
300984,511,515,503
300988,513,520,504
300992,515,517,510
300996,506,512,512
301000,509,512,511
301003,506,516,511
301007,506,517,510
301011,507,516,511
301016,509,511,511
301020,513,510,510
301024,511,510,508
301028,510,511,508
301032,508,515,511
301036,506,513,512
301040,500,513,511
301044,506,514,510
301048,511,515,511
301052,506,511,512
301057,505,508,511
301060,507,512,511
301064,508,517,511
301068,503,515,509
301072,506,513,508
301076,504,512,509
301080,512,515,510
301084,516,520,509
301088,509,521,506
301092,500,518,506
301096,505,515,505
301101,508,516,509
301105,510,517,510
301109,509,515,509
301113,505,511,507
301116,504,513,507
301120,505,515,507
301124,511,515,505
301128,507,515,507
301132,502,514,510
301136,503,516,508
301140,506,519,510
301145,505,517,513
301149,505,514,514
301153,502,513,510
301157,504,515,510
301161,507,515,510
301165,508,514,510
301169,503,508,511
301172,502,507,510
301176,507,511,508
301180,510,512,509
301185,509,510,510
301189,506,507,510
301193,505,509,510
301197,508,514,510
301201,510,516,509
301205,507,513,506
301209,511,511,506
301213,511,511,505
301217,509,512,504
301221,509,512,507
301225,508,508,507
301229,508,505,506
301233,509,506,507
301237,506,507,508
301241,505,511,509
301245,510,511,511
301249,506,510,512
301253,505,510,512
301257,505,511,512
301261,505,510,511
301265,510,508,510
301270,505,508,511
301274,505,508,511
301278,505,510,512
301282,509,509,509
301285,504,509,506
301289,508,511,507
301293,507,513,507
301297,509,515,508
301301,509,513,506
301305,503,510,507
301309,504,511,509
301314,509,515,509
301318,510,517,507
301322,510,516,508
301326,508,514,509
301330,508,515,508
301334,507,516,507
301338,504,517,508
301341,504,511,508
301345,505,509,505
301349,506,511,504
301353,512,514,505
301358,508,514,507
301362,506,511,507
301366,501,509,510
301370,506,510,510
301374,512,512,509
301378,508,513,511
301382,505,512,514
301386,502,509,515
301390,503,508,514
301394,505,511,514
301398,506,509,513
301402,504,508,512
301406,505,511,511
301410,507,513,509
301414,509,514,510
301418,506,513,508
301422,506,513,507
301426,508,515,509
301430,512,515,510
301434,513,515,510
301438,505,510,511
301443,503,510,512
301447,505,510,511
301451,510,511,510
301454,508,512,510
301458,503,512,511
301462,503,509,512
301466,505,509,512
301470,503,510,511
301474,513,508,510
301478,511,504,506
301483,502,504,505
301487,506,509,505
301491,508,510,507
301495,505,508,507
301499,505,508,509
301503,505,509,510
301507,512,510,509
301510,512,511,507
301514,511,510,505
301518,510,510,505
301522,508,508,509
301527,512,510,514
301531,514,510,513
301535,507,508,510
301539,509,504,510
301543,514,507,509
301547,508,509,506
301551,507,510,506
301555,505,507,507
301559,503,506,506
301563,507,509,503
301566,510,513,501
301571,513,507,502
301575,512,500,509
301579,509,501,509
301583,507,506,509
301587,509,509,509
301591,511,508,510
301595,509,506,509
301599,507,509,506
301603,510,512,504
301607,511,512,506
301612,509,509,507
301616,507,503,506
301620,510,501,503
301623,511,506,503
301627,509,507,504
301631,505,504,506
301635,501,506,505
301639,504,509,506
301643,508,511,508
301647,515,509,509
301651,506,506,510
301656,507,505,508
301660,509,507,507
301664,509,509,506
301668,501,506,506
301672,505,501,505
301676,508,503,509
301679,511,507,514
301683,514,505,513
301687,506,501,511
301691,505,500,511
301696,505,503,511
301700,505,505,510
301704,505,504,509
301708,505,501,508
301712,506,500,509
301716,507,503,510
301720,512,506,509
301724,511,503,507
301728,506,500,506
301732,507,498,507
301735,510,502,508
301740,502,506,508
301744,503,508,510
301748,504,506,510
301752,506,505,509
301756,507,507,507
301760,506,509,509
301764,504,506,508
301768,503,505,506
301772,501,507,508
301776,505,512,508
301780,508,512,511
301785,509,508,512
301789,507,506,511
301792,508,508,511
301796,509,511,509
301800,507,514,507
301804,509,514,507
301808,507,512,507
301812,505,513,509
301816,506,516,511
301820,507,511,510
301825,505,506,507
301829,503,505,505
301833,502,509,505
301837,504,510,505
301841,506,509,504
301845,509,511,503
301848,511,513,504
301852,506,514,506
301856,504,514,505
301860,505,511,505
301864,505,509,510
301869,504,510,511
301873,506,512,510
301877,509,514,510
301881,503,514,510
301885,504,509,508
301889,506,508,509
301893,506,509,508
301897,507,507,506
301901,508,508,505
301904,505,511,505
301908,506,516,506
301913,507,514,507
301917,507,513,506
301921,504,510,508
301925,501,511,508
301929,504,513,508
301933,508,516,507
301937,505,516,508
301941,502,516,508
301945,505,515,509
301949,509,514,510
301954,515,516,507
301958,513,517,506
301961,508,514,507
301965,504,513,508
301969,505,515,508
301973,505,515,508
301977,500,511,507
301981,502,512,506
301985,508,515,507
301989,512,515,507
301993,509,515,507
301998,508,513,506
302002,505,511,506
302006,504,511,507
302010,508,514,505
302014,505,515,501
302017,502,512,504
302021,499,509,505
302025,508,512,503
302029,508,511,503
302033,509,508,504
302038,509,510,504
302042,509,511,503
302046,510,512,505
302050,512,508,504
302054,512,507,501
302058,507,508,501
302062,514,512,503
302066,504,512,506
302069,509,512,508
302072,506,511,507
302076,504,508,505
302081,507,508,506
302085,508,514,507
302089,509,514,506
302093,509,512,506
302097,508,511,506
302101,506,512,506
302105,509,512,505
302109,508,512,504
302113,506,509,502
302117,505,510,504
302121,510,511,503
302125,513,511,503
302128,511,509,503
302132,507,506,505
302136,507,506,507
302140,506,510,508
302144,510,511,508
302148,505,508,508
302152,506,506,508
302156,507,507,510
302160,509,509,510
302164,508,510,509
302169,502,508,508
302173,504,507,507
302177,509,508,505
302180,510,511,506
302183,509,512,505
302187,504,512,506
302191,504,514,508
302195,505,514,506
302199,510,511,508
302203,515,510,508
302208,513,510,507
302212,514,511,506
302216,515,514,507
302220,515,514,509
302224,509,512,510
302228,504,508,510
302232,505,509,509
302235,508,513,509
302238,510,512,507
302242,509,510,505
302246,506,511,504
302251,509,515,504
302255,507,517,508
302259,510,514,510
302263,509,509,509
302267,506,509,507
302271,506,511,506
302275,504,512,504
302279,506,509,504
302283,503,505,505
302287,503,505,506
302290,505,510,505
302294,509,511,503
302298,515,509,504
302302,516,508,504
302306,510,510,504
302310,510,509,505
302314,515,507,507
302318,510,505,506
302322,506,504,506
302326,511,505,506
302330,511,505,505
302334,509,510,505
302339,510,510,508
302343,512,509,506
302346,510,506,504
302349,510,507,504
302353,513,506,503
302357,510,503,505
302361,510,503,508
302365,509,504,508
302369,515,508,507
302373,517,510,508
302377,505,507,509
302382,507,505,511
302386,508,506,510
302390,518,509,509
302394,517,509,510
302398,499,506,511
302401,500,504,512
302405,505,507,512
302409,512,508,513
302413,510,506,513
302417,504,505,511
302422,503,502,512
302426,505,504,514
302430,502,506,507
302434,504,505,509
302438,503,500,515
302442,510,501,511
302446,507,502,511
302450,507,505,512
302454,510,503,509
302457,512,501,508
302461,513,505,508
302466,506,509,508
302470,508,509,511
302474,508,506,512
302478,509,504,511
302482,507,504,510
302486,508,507,510
302490,510,509,508
302494,504,507,508
302498,504,505,508
302502,508,505,509
302507,511,506,509
302511,510,504,509
302514,512,502,508
302518,509,503,507
302522,510,505,509
302526,508,507,509
302530,505,506,508
302534,508,505,507
302538,509,506,507
302542,512,509,507
302546,512,510,508
302551,504,507,507
302555,508,505,507
302559,509,506,507
302563,510,507,506
302567,510,508,507
302570,505,505,507
302574,505,505,508
302578,506,508,508
302582,508,508,507
302586,513,503,508
302590,513,503,509
302595,503,505,509
302599,503,508,510
302603,503,508,510
302607,503,507,509
302611,502,506,509
302615,505,508,509
302619,512,512,511
302623,506,512,512
302626,503,510,512
302630,505,505,512
302635,509,504,511
302639,509,508,510
302643,511,511,512
302647,504,509,514
302651,505,505,514
302655,506,506,513
302659,503,511,512
302663,508,512,510
302667,508,508,512
302671,504,505,512
302675,505,505,509
302680,504,507,507
302683,505,509,509
302687,505,508,508
302691,505,508,508
302695,507,514,509
302699,506,519,511
302703,509,511,508
302707,507,507,507
302711,508,505,511
302715,505,509,512
302720,504,511,513
302724,507,512,514
302728,509,511,512
302732,507,513,512
302736,508,515,514
302739,505,514,513
302743,504,509,510
302747,503,505,507
302751,503,508,506
302755,508,513,509
302759,510,511,510
302764,506,511,508
302768,504,514,507
302772,506,516,505
302776,510,521,502
302780,507,521,503
302784,504,513,507
302788,506,509,509
302792,512,509,504
302795,502,510,498
302799,511,513,499
302803,508,514,507
302808,500,510,506
302812,507,511,511
302816,511,514,514
302820,511,508,512
302824,508,504,511
302828,506,505,512
302832,509,510,510
302836,510,513,509
302840,507,510,508
302844,505,509,510
302849,506,515,508
302852,512,517,510
302856,513,517,512
302860,512,513,511
302864,508,510,511
302868,512,512,510
302872,513,511,507
302876,510,508,510
302880,508,507,512
302884,502,509,509
302888,509,515,508
302893,508,517,511
302897,508,512,512
302901,509,508,513
302905,510,507,511
302908,509,506,509
302912,515,507,506
302916,502,510,507
302920,503,508,509
302924,511,509,511
302928,512,510,511
302932,512,511,509
302937,510,511,506
302941,508,512,504
302945,511,510,506
302949,510,510,508
302953,511,508,509
302957,508,503,510
302961,502,501,507
302964,504,502,505
302968,509,506,509
302972,510,508,512
302977,510,506,512
302981,508,508,512
302985,510,508,513
302989,512,507,510
302993,510,506,509
302997,505,506,510
303001,505,507,509
303005,510,511,508
303009,511,515,507
303013,507,509,511
303017,505,505,510
303021,503,511,509
303025,511,512,510
303029,511,508,508
303033,507,505,503
303037,506,507,502
303041,511,506,510
303045,512,506,511
303049,504,506,506
303053,502,506,506
303057,504,504,505
303062,510,514,504
303066,511,518,502
303070,510,514,514
303074,509,512,519
303077,511,505,516
303081,511,504,511
303085,512,503,519
303089,506,496,525
303093,503,495,521
303097,504,498,512
303101,510,504,491
303106,509,506,499
303110,506,500,516
303114,505,497,509
303118,506,505,490
303122,509,523,506
303126,514,524,499
303130,509,502,493
303133,514,496,486
303137,506,522,522
303141,510,505,526
303145,512,497,527
303150,515,492,510
303154,510,497,508
303158,500,501,500
303162,503,500,522
303166,503,501,529
303170,509,508,521
303174,509,493,522
303178,510,479,514
303182,513,490,511
303186,511,498,513
303190,504,498,508
303194,499,489,492
303198,505,497,520
303202,511,508,520
303206,510,501,528
303210,503,511,523
303214,505,508,521
303218,518,520,535
303222,519,507,516
303226,514,506,500
303230,513,520,508
303235,523,509,527
303239,517,493,536
303243,515,501,549
303246,503,502,535
303250,497,491,529
303254,502,500,559
303258,506,516,562
303262,503,510,514
303266,494,513,518
303270,498,489,499
303275,512,482,525
303279,516,484,520
303283,503,483,556
303287,503,494,554
303291,498,525,557
303295,504,526,567
303299,514,530,588
303302,510,523,593
303306,514,505,547
303310,503,508,546
303314,502,518,539
303319,507,493,525
303323,510,471,508
303327,508,491,551
303331,519,516,580
303335,521,497,551
303339,512,532,571
303343,499,560,592
303347,505,538,588
303351,514,504,571
303355,504,510,538
303358,507,505,509
303363,508,498,504
303367,509,486,517
303371,506,491,513
303375,514,523,512
303379,510,515,552
303383,498,494,576
303387,502,519,566
303391,524,538,545
303395,520,511,531
303399,515,503,499
303404,492,506,503
303408,504,526,555
303412,503,510,559
303415,537,522,566
303419,520,531,572
303423,502,519,553
303427,489,495,538
303431,514,492,550
303435,511,526,535
303439,537,524,496
303443,519,520,497
303448,511,536,531
303452,486,521,532
303456,503,535,502
303460,504,562,570
303464,525,574,565
303468,530,484,500
303471,512,458,446
303475,501,436,422
303479,496,489,473
303483,498,471,469
303488,517,518,517
303492,519,581,566
303496,528,533,557
303500,506,490,463
303504,499,553,456
303508,515,550,493
303512,521,513,532
303516,508,494,543
303520,506,498,527
303524,512,523,541
303527,503,536,526
303532,507,505,498
303536,491,470,472
303540,508,457,445
303544,502,479,449
303548,509,521,469
303552,517,524,505
303556,508,565,522
303560,501,555,498
303564,512,533,467
303568,513,536,452
303572,505,552,488
303577,501,560,539
303581,498,525,456
303584,509,535,453
303588,521,449,429
303592,505,544,534
303596,512,543,569
303600,506,526,522
303604,512,503,471
303608,494,566,557
303612,491,583,575
303617,483,528,492
303621,483,445,428
303625,547,411,420
303629,522,456,446
303633,488,540,494
303637,481,552,487
303640,515,507,474
303644,501,599,619
303648,501,556,523
303652,517,514,427
303656,500,497,447
303661,518,480,448
303665,508,525,492
303669,514,484,464
303673,502,493,492
303677,510,542,537
303681,511,517,535
303685,510,504,476
303689,509,535,483
303693,502,484,507
303696,468,453,533
303700,480,501,540
303705,485,544,552
303709,504,527,480
303713,505,529,440
303717,524,536,475
303721,512,476,437
303725,492,496,421
303729,490,650,618
303733,503,649,644
303737,544,495,461
303741,519,452,416
303746,502,463,458
303750,501,485,483
303754,510,578,592
303758,520,608,587
303762,512,506,425
303766,497,436,429
303770,513,437,470
303774,509,503,520
303778,498,528,494
303782,495,480,456
303787,502,558,499
303791,503,564,551
303795,494,483,502
303799,495,470,448
303803,497,450,447
303806,504,493,493
303810,514,541,522
303814,508,551,517
303818,502,495,505
303822,512,516,577
303826,508,516,478
303831,515,476,482
303835,507,469,506
303839,515,521,509
303843,503,498,440
303847,501,486,429
303851,500,551,480
303855,497,581,544
303859,498,474,498
303862,535,465,483
303866,519,571,613
303870,506,600,584
303875,504,462,440
303879,492,435,444
303883,496,396,409
303887,519,422,417
303891,539,522,564
303895,506,561,621
303899,521,543,557
303903,498,553,554
303907,475,527,484
303911,486,476,469
303916,488,530,535
303919,520,499,500
303923,512,521,465
303927,500,485,499
303931,515,498,514
303935,521,473,373
303939,511,476,407
303943,527,471,477
303947,507,455,514
303951,504,490,539
303955,504,557,559
303960,496,581,585
303964,502,543,585
303968,498,553,517
303972,502,494,432
303975,512,440,443
303979,512,481,528
303983,511,493,544
303987,518,537,486
303991,505,512,457
303995,494,515,483
304000,488,554,548
304004,494,608,590
304008,495,485,457
304012,512,421,421
304016,504,460,477
304020,481,514,528
304024,492,467,504
304028,512,462,487
304031,516,537,478
304035,512,547,516
304039,520,544,591
304044,516,553,614
304048,510,530,479
304052,501,448,426
304056,500,467,467
304060,508,519,505
304064,511,532,571
304068,502,543,600
304072,498,514,529
304076,500,495,456
304080,504,491,475
304084,519,527,498
304088,512,555,541
304092,500,562,500
304096,499,457,400
304100,506,438,410
304104,503,430,455
304108,503,463,450
304112,502,506,499
304116,504,504,523
304120,501,505,505
304124,509,486,529
304129,510,574,613
304133,518,545,525
304137,519,481,452
304141,504,456,441
304144,501,476,481
304148,503,490,503
304152,501,507,498
304156,499,610,552
304160,514,575,608
304164,509,507,501
304168,508,474,449
304173,500,469,429
304177,498,516,444
304181,493,554,541
304185,504,568,567
304189,518,471,482
304193,528,479,515
304197,515,486,521
304200,504,510,482
304204,498,503,466
304208,504,483,447
304212,503,455,473
304217,501,471,490
304221,511,510,505
304225,507,502,480
304229,518,480,485
304233,514,511,512
304237,513,527,565
304241,492,548,565
304245,502,540,528
304249,524,532,570
304253,519,557,588
304257,498,524,504
304261,499,432,400
304265,506,458,493
304269,503,532,540
304273,511,524,485
304277,519,518,462
304281,527,503,498
304285,505,494,508
304289,486,505,487
304293,487,489,454
304297,495,500,479
304302,511,592,609
304306,513,523,522
304310,497,450,419
304313,502,463,452
304317,507,519,490
304321,502,488,537
304325,502,490,506
304329,508,484,497
304333,518,499,536
304337,518,536,605
304342,512,556,577
304346,504,507,439
304350,519,492,434
304354,510,492,461
304358,512,489,477
304362,501,569,551
304366,515,534,551
304369,502,475,478
304373,499,474,444
304377,508,465,470
304381,515,496,516
304386,510,516,494
304390,505,470,429
304394,506,447,450
304398,511,516,530
304402,513,540,572
304406,506,527,573
304410,503,534,515
304414,510,541,480
304418,515,514,481
304422,512,489,497
304425,506,545,590
304430,512,551,591
304434,497,461,445
304438,494,447,408
304442,516,457,414
304446,520,504,456
304450,516,517,476
304454,524,520,497
304458,513,484,491
304462,506,502,496
304466,511,484,499
304471,513,519,555
304475,518,584,601
304479,501,544,551
304482,508,500,503
304486,507,444,444
304490,518,463,447
304494,509,517,488
304498,502,503,536
304502,502,574,566
304506,518,506,489
304510,508,477,465
304515,501,500,492
304519,506,485,474
304523,507,486,482
304527,518,489,492
304531,519,505,511
304535,504,496,523
304538,504,551,625
304542,518,580,608
304546,513,504,437
304550,518,475,438
304555,514,462,459
304559,507,478,481
304563,507,474,483
304567,523,546,583
304571,512,584,549
304575,513,519,468
304579,508,471,455
304583,504,489,486
304587,506,556,603
304591,517,516,501
304594,522,471,443
304599,508,489,457
304603,507,487,466
304607,520,446,485
304611,531,524,517
304615,514,531,527
304619,518,508,514
304623,509,513,494
304627,498,478,502
304631,510,527,561
304635,512,567,656
304640,516,543,586
304644,506,493,446
304648,505,477,424
304651,506,483,462
304655,500,513,489
304659,494,510,518
304663,504,497,493
304667,500,499,504
304671,515,548,516
304675,530,514,502
304679,516,508,491
304684,512,512,503
304688,498,480,497
304692,502,476,476
304696,506,542,518
304700,508,514,571
304704,504,469,529
304707,501,499,510
304711,502,509,541
304715,500,513,533
304719,507,500,480
304723,514,512,457
304728,509,522,502
304732,494,523,520
304736,501,491,500
304740,498,472,509
304744,504,476,501
304748,519,528,496
304752,510,520,476
304756,509,486,490
304760,507,495,508
304763,518,506,508
304768,503,487,506
304772,489,511,519
304776,495,551,542
304780,502,536,548
304784,509,530,564
304788,502,494,506
304792,497,497,504
304796,503,515,501
304800,515,559,506
304804,504,478,485
304808,502,461,473
304813,517,502,495
304817,522,531,525
304820,508,540,509
304824,504,505,481
304828,499,524,490
304832,503,529,533
304836,521,523,542
304840,512,492,473
304844,503,483,461
304848,495,509,504
304852,500,509,546
304857,498,546,552
304861,506,521,481
304865,512,486,468
304869,510,510,482
304873,512,500,544
304876,515,489,525
304880,504,508,500
304884,504,523,489
304888,508,498,512
304892,502,528,536
304897,511,524,517
304901,509,510,505
304905,512,505,515
304909,508,492,495
304913,500,482,496
304917,506,489,495
304921,516,506,562
304925,517,549,548
304929,509,516,504
304932,502,505,505
304936,509,515,516
304941,508,506,527
304945,518,483,512
304949,518,481,495
304953,505,553,528
304957,522,540,519
304961,506,519,498
304965,499,497,486
304969,498,505,491
304973,500,497,505
304977,497,497,503
304982,510,505,504
304986,503,526,523
304989,505,506,539
304993,518,506,546
304997,514,513,533
305001,512,486,506
305005,494,508,501
305009,507,532,508
305013,517,518,496
305017,514,495,514
305021,516,505,551
305026,504,523,536
305030,505,528,519
305034,506,513,488
305038,501,491,492
305042,506,502,511
305045,508,513,498
305049,510,504,483
305053,516,520,501
305057,504,527,516
305061,511,527,516
305065,504,476,535
305070,499,475,514
305074,503,483,496
305078,505,533,538
305082,503,521,507
305086,507,466,468
305090,494,545,610
305094,504,551,566
305098,505,477,467
305101,503,480,463
305105,515,514,519
305110,522,539,519
305114,512,494,475
305118,514,468,489
305122,496,512,501
305126,506,534,512
305130,514,540,519
305134,518,526,495
305138,507,474,483
305142,498,483,498
305146,502,493,522
305150,512,490,513
305154,515,540,525
305157,520,539,520
305161,506,497,521
305165,507,475,519
305169,502,527,542
305173,506,499,503
305177,504,493,500
305181,515,524,510
305185,502,522,491
305189,504,515,470
305193,507,541,481
305198,502,524,494
305202,501,506,503
305206,506,511,530
305209,509,523,529
305212,528,485,491
305216,519,511,509
305220,513,504,504
305224,517,509,526
305228,513,533,561
305232,500,543,565
305236,496,525,532
305241,504,512,501
305245,509,473,477
305249,504,476,483
305253,501,500,520
305257,503,501,507
305261,501,497,497
305264,500,529,512
305267,511,536,494
305271,513,540,488
305275,514,512,491
305280,498,517,535
305284,511,538,529
305288,510,489,515
305292,511,488,519
305296,524,477,487
305300,519,503,490
305304,502,552,557
305308,511,535,516
305312,513,495,474
305316,504,495,502
305319,500,501,510
305323,494,504,503
305327,507,493,511
305331,508,504,523
305335,507,505,515
305339,504,507,510
305343,504,515,506
305347,507,557,517
305351,507,509,518
305355,499,526,505
305359,500,505,491
305363,499,501,492
305368,497,516,508
305372,511,527,536
305375,508,527,510
305378,500,507,478
305382,493,508,520
305386,513,509,533
305390,512,517,508
305394,510,496,512
305398,516,510,516
305402,507,515,472
305406,495,506,505
305411,501,525,555
305415,505,512,525
305419,510,487,482
305423,509,490,491
305427,503,509,505
305430,509,511,489
305433,505,538,519
305437,503,554,548
305441,509,487,512
305445,496,473,493
305449,504,511,491
305454,506,496,497
305458,513,498,504
305462,501,523,532
305466,496,530,510
305470,494,505,524
305474,498,520,498
305478,500,506,489
305482,510,471,526
305485,520,461,504
305489,509,506,502
305494,500,527,509
305498,501,510,499
305502,506,501,501
305506,509,532,511
305510,536,510,538
305514,532,539,555
305518,504,529,537
305522,494,479,485
305526,493,472,478
305530,497,497,502
305534,509,494,486
305539,509,499,500
305542,512,530,534
305546,520,497,489
305550,506,520,500
305554,498,545,546
305558,493,486,485
305562,512,463,474
305566,521,488,483
305570,519,506,477
305574,510,525,493
305579,498,515,517
305583,510,517,520
305587,511,525,502
305591,511,523,494
305595,512,513,504
305598,521,507,508
305602,512,510,516
305606,504,505,492
305610,500,480,486
305614,497,495,488
305618,498,513,514
305623,508,481,515
305627,518,512,541
305631,507,543,538
305635,517,506,490
305639,509,531,497
305643,515,524,523
305647,523,506,520
305651,524,506,538
305654,504,501,519
305658,499,518,509
305662,508,517,500
305667,506,499,499
305671,512,528,510
305675,506,541,519
305679,502,509,509
305683,514,531,508
305687,511,498,500
305691,501,502,510
305695,502,536,542
305699,511,516,539
305703,504,494,524
305708,502,487,540
305711,505,502,496
305715,496,501,500
305719,513,520,527
305723,510,504,512
305727,511,494,508
305731,507,476,503
305735,494,525,501
305739,509,530,525
305743,504,526,513
305747,491,499,480
305752,504,506,501
305756,504,511,515
305760,512,524,513
305764,510,534,516
305767,510,504,504
305771,506,495,498
305775,506,533,531
305779,514,489,506
305783,503,487,520
305787,502,516,531
305792,508,496,511
305796,504,493,496
305800,510,526,521
305804,506,540,513
305808,500,499,496
305812,507,530,517
305816,517,510,522
305820,514,543,523
305823,500,502,485
305827,491,496,490
305831,500,515,498
305836,500,518,535
305840,496,506,484
305844,510,495,470
305848,505,479,476
305852,514,497,495
305856,521,502,495
305860,513,523,515
305864,498,534,539
305868,502,501,511
305872,505,517,531
305876,507,523,545
305880,508,474,506
305884,492,489,514
305888,499,528,508
305892,493,512,488
305896,513,509,490
305900,524,510,504
305904,508,500,514
305908,510,489,522
305912,512,497,540
305916,516,513,501
305921,506,515,463
305925,496,516,509
305929,507,542,522
305933,515,514,508
305936,498,517,501
305940,496,522,522
305944,503,524,585
305948,507,542,547
305952,515,509,486
305956,503,475,481
305960,501,502,487
305965,502,481,491
305969,511,466,481
305973,522,490,513
305977,511,516,539
305981,506,512,516
305985,513,494,499
305989,511,493,500
305992,505,507,514
305996,504,544,532
306000,508,534,516
306004,507,515,515
306009,503,490,481
306013,501,516,487
306017,512,502,516
306021,504,494,530
306025,507,504,517
306029,502,500,520
306033,508,488,512
306037,509,460,473
306041,498,463,476
306045,501,525,547
306049,502,522,521
306053,506,529,510
306057,504,494,486
306061,507,455,464
306065,504,530,501
306069,513,534,513
306073,512,513,495
306077,518,526,499
306081,510,539,510
306085,507,554,536
306089,509,530,553
306094,501,503,549
306098,499,490,522
306102,514,508,511
306105,518,495,499
306109,512,507,505
306113,503,493,503
306117,507,502,496
306121,500,510,495
306125,502,518,519
306129,506,541,532
306134,506,515,501
306138,511,504,511
306142,510,483,507
306146,510,494,502
306150,502,512,508
306154,501,496,505
306158,512,489,501
306161,508,502,499
306165,514,500,509
306169,504,514,537
306173,511,505,544
306178,504,534,535
306182,497,529,488
306186,506,509,521
306190,511,497,513
306194,496,479,496
306198,506,493,504
306202,514,472,509
306206,528,537,551
306210,516,518,530
306214,501,500,508
306217,502,503,534
306222,511,516,526
306226,517,497,508
306230,517,505,520
306234,504,528,519
306238,505,536,500
306242,507,509,510
306246,529,492,496
306250,517,477,489
306254,491,495,520
306258,490,536,529
306263,506,538,511
306267,511,522,516
306271,518,512,529
306274,504,479,502
306278,495,506,509
306282,505,516,513
306286,504,518,533
306290,513,541,533
306294,516,508,493
306298,499,461,474
306302,498,496,522
306307,510,528,545
306311,521,524,515
306315,502,502,496
306319,507,525,503
306323,509,502,475
306327,506,501,480
306330,502,497,495
306334,514,502,507
306338,522,502,517
306342,521,517,528
306347,510,519,503
306351,497,497,510
306355,507,514,542
306359,511,548,543
306363,511,508,489
306367,523,514,500
306371,506,517,518
306375,501,505,496
306379,503,493,503
306383,502,485,483
306386,510,503,506
306391,511,531,513
306395,512,512,509
306399,505,534,547
306403,507,523,503
306407,509,488,492
306411,506,501,495
306415,502,510,487
306419,496,488,487
306423,504,488,511
306427,502,498,519
306432,513,529,528
306436,514,520,530
306440,512,494,486
306443,513,505,468
306447,506,527,539
306451,500,526,557
306455,503,520,517
306459,518,496,490
306463,518,475,498
306467,516,494,506
306471,510,503,510
306476,496,497,505
306480,499,516,553
306484,502,539,529
306488,513,549,515
306492,520,516,506
306496,511,519,510
306499,506,495,513
306503,498,507,512
306507,493,515,519
306511,507,502,520
306515,521,484,477
306520,522,481,462
306524,517,472,508
306528,512,497,523
306532,502,535,535
306536,510,525,549
306540,503,509,552
306544,502,512,515
306548,512,541,507
306552,511,514,487
306555,507,494,521
306560,516,533,579
306564,507,503,506
306568,503,483,475
306572,517,504,492
306576,504,534,499
306580,503,521,504
306584,520,518,497
306588,497,503,495
306592,497,505,508
306596,511,512,527
306600,514,495,512
306605,514,513,499
306609,508,515,505
306612,505,497,506
306616,503,502,545
306620,506,495,513
306624,509,550,526
306628,528,535,497
306632,512,497,474
306636,512,516,492
306640,508,504,541
306644,493,486,512
306649,504,511,504
306653,511,532,518
306657,515,520,508
306661,509,527,497
306665,499,490,471
306668,512,512,528
306672,514,524,539
306676,515,554,542
306680,501,512,506
306684,509,481,488
306689,512,508,498
306693,504,480,488
306697,505,476,477
306701,504,509,528
306705,516,532,573
306709,515,532,526
306713,505,566,518
306717,497,540,540
306721,499,508,539
306724,497,484,496
306728,502,470,477
306733,524,535,520
306737,527,541,522
306741,514,499,474
306745,498,512,500
306749,506,504,506
306753,505,504,501
306757,518,506,499
306761,511,510,483
306765,500,526,520
306769,503,538,564
306774,511,519,551
306778,513,508,486
306781,521,512,501
306785,509,496,508
306789,510,486,500
306793,498,517,516
306797,496,548,545
306801,500,510,513
306805,505,511,496
306809,507,520,514
306813,495,459,512
306818,505,521,532
306822,510,529,521
306826,518,474,484
306830,508,467,456
306834,493,467,461
306838,510,501,540
306842,519,501,535
306846,516,553,536
306850,503,538,533
306854,502,514,519
306859,511,514,531
306863,505,513,502
306867,517,495,514
306871,509,489,508
306875,506,514,522
306879,506,509,504
306883,511,503,511
306887,500,515,516
306890,494,531,520
306894,504,513,507
306898,508,492,504
306903,512,527,523
306907,509,504,517
306911,503,505,507
306915,504,520,504
306919,509,515,500
306923,497,523,498
306927,509,493,481
306931,513,517,499
306935,516,526,494
306939,520,519,489
306944,510,482,514
306947,507,501,538
306951,500,522,531
306955,512,509,514
306959,510,513,509
306963,505,520,527
306967,490,507,494
306971,501,486,511
306975,512,548,558
306979,517,543,528
306983,509,502,508
306988,502,501,494
306992,499,498,486
306996,503,488,495
307000,507,486,485
307003,507,498,499
307007,518,533,545
307011,512,533,540
307015,502,476,485
307019,501,484,478
307023,503,494,473
307027,513,513,491
307032,520,537,566
307036,518,517,526
307040,495,499,495
307044,504,504,495
307048,502,511,513
307052,510,504,495
307056,513,539,568
307059,521,560,548
307063,510,517,498
307067,497,490,472
307072,502,503,476
307076,502,518,467
307080,516,524,506
307084,511,510,512
307088,499,541,515
307092,497,501,517
307096,504,487,520
307100,505,458,477
307104,497,504,517
307108,512,506,503
307112,511,501,489
307116,508,509,477
307120,504,491,486
307124,507,522,523
307128,512,544,562
307132,508,525,533
307136,507,517,497
307140,520,516,502
307144,511,494,503
307148,506,504,495
307152,507,530,520
307156,504,511,514
307161,508,479,488
307165,510,487,484
307169,512,514,501
307172,508,512,505
307176,511,512,500
307180,516,528,508
307184,504,531,503
307188,508,532,518
307192,510,533,538
307196,516,475,501
307201,511,508,510
307205,507,539,499
307209,514,511,486
307213,515,494,514
307217,515,518,500
307221,504,484,471
307225,501,492,493
307228,509,507,526
307232,499,531,547
307236,502,510,500
307240,508,496,474
307245,507,512,515
307249,505,479,513
307253,511,487,496
307257,504,492,500
307261,495,510,511
307265,509,503,509
307269,520,520,503
307273,509,511,499
307277,506,500,483
307281,506,498,504
307284,496,509,523
307289,501,511,506
307293,512,504,484
307297,519,496,511
307301,512,527,522
307305,505,532,529
307309,501,504,510
307313,498,482,495
307317,504,472,487
307321,511,489,511
307325,523,523,522
307330,505,542,503
307334,495,518,496
307338,496,507,516
307341,512,507,521
307344,515,521,521
307348,498,476,486
307352,500,465,494
307356,503,530,537
307360,503,512,520
307364,504,500,502
307368,515,494,490
307373,510,486,481
307377,509,514,531
307381,512,530,564
307385,504,543,495
307389,505,500,469
307393,516,480,492
307397,504,463,503
307400,506,482,510
307404,505,498,508
307408,509,506,508
307412,512,519,525
307417,511,513,515
307421,503,498,511
307425,502,512,510
307429,499,542,530
307433,507,513,495
307437,502,531,529
307441,508,484,504
307445,514,470,482
307449,506,480,497
307453,514,504,495
307457,516,501,509
307461,515,512,500
307465,513,539,537
307469,509,513,538
307473,504,484,498
307477,509,504,501
307481,517,505,506
307485,510,505,513
307489,506,503,496
307493,505,549,547
307497,503,549,526
307502,500,506,496
307506,497,486,489
307510,503,510,501
307513,512,517,501
307517,513,504,501
307521,510,492,500
307525,512,485,504
307529,504,510,509
307533,504,535,527
307537,501,529,512
307542,502,504,502
307546,503,503,507
307550,514,502,508
307554,520,512,528
307558,515,510,513
307562,515,507,476
307566,512,518,494
307569,507,508,511
307573,508,493,515
307577,508,511,520
307581,496,556,531
307586,504,518,532
307590,505,472,486
307594,497,480,486
307598,501,504,488
307602,512,506,503
307606,509,530,554
307610,509,539,547
307614,507,494,484
307618,511,485,465
307622,508,491,470
307625,501,506,528
307630,504,500,537
307634,509,514,542
307638,507,562,541
307642,505,509,478
307646,505,514,471
307650,519,524,489
307654,512,516,540
307658,500,521,540
307662,502,483,494
307666,502,475,477
307671,509,499,505
307675,515,511,521
307679,502,502,515
307682,499,479,492
307686,522,500,475
307690,509,495,499
307694,508,480,496
307698,505,498,511
307702,512,537,535
307706,513,543,537
307710,508,527,514
307715,507,542,516
307719,514,523,537
307723,508,548,580
307727,499,534,525
307731,509,515,486
307735,505,505,472
307738,503,496,476
307742,498,477,494
307746,515,498,506
307750,516,519,509
307755,506,503,487
307759,500,505,478
307763,503,532,505
307767,513,546,522
307771,509,528,529
307775,511,495,526
307779,505,519,545
307783,511,502,509
307787,509,503,478
307791,506,503,489
307794,515,489,490
307799,506,502,510
307803,510,528,523
307807,504,511,501
307811,499,516,538
307815,496,544,529
307819,508,494,500
307823,511,497,499
307827,512,528,514
307831,510,519,518
307835,514,501,490
307840,503,492,474
307844,498,522,518
307848,506,555,551
307851,503,509,512
307855,500,494,506
307859,509,532,534
307863,518,585,558
307867,520,499,480
307871,508,437,466
307875,508,478,497
307879,506,494,537
307884,507,497,524
307888,503,493,517
307892,499,490,511
307896,506,490,485
307900,506,517,524
307904,509,528,529
307907,510,516,508
307911,507,496,503
307915,504,547,536
307919,504,535,511
307923,506,482,493
307928,504,464,486
307932,509,491,509
307936,516,544,555
307940,510,551,555
307944,510,514,488
307948,508,510,491
307952,504,493,471
307956,504,509,507
307960,517,512,570
307963,507,502,530
307968,498,471,451
307972,500,492,486
307976,507,497,492
307980,500,511,506
307984,512,526,514
307988,517,494,501
307992,507,495,501
307996,511,522,510
308000,515,532,505
308004,509,506,522
308008,506,500,516
308013,503,500,507
308017,513,510,507
308020,519,564,549
308024,511,548,555
308028,498,487,483
308032,501,475,488
308036,499,486,498
308040,508,504,505
308044,505,540,514
308048,509,503,515
308052,520,525,522
308057,513,489,489
308061,503,494,488
308065,506,535,527
308069,496,546,526
308073,498,505,488
308076,507,488,478
308080,504,497,484
308084,510,505,498
308088,520,527,494
308092,521,503,502
308097,512,511,510
308101,509,498,513
308105,513,509,530
308109,506,544,557
308113,502,519,509
308117,507,503,477
308121,508,526,506
308125,509,517,519
308129,513,493,527
308132,515,514,501
308136,513,512,475
308141,510,495,483
308145,503,543,545
308149,503,504,503
308153,506,489,492
308157,505,506,503
308161,508,512,495
308165,496,536,507
308169,498,513,501
308173,496,533,508
308177,503,523,505
308182,504,513,513
308186,496,488,495
308189,516,496,490
308193,516,520,501
308197,518,528,527
308201,506,510,531
308205,511,498,521
308209,503,507,528
308213,508,535,563
308217,502,496,485
308221,512,490,478
308226,515,511,493
308230,513,496,480
308234,511,513,459
308238,504,518,509
308242,498,536,549
308245,508,515,526
308249,504,494,522
308253,502,519,535
308257,504,500,501
308261,506,476,477
308265,505,484,490
308270,507,527,544
308274,502,506,528
308278,504,506,486
308282,505,504,473
308286,507,500,508
308290,514,509,530
308294,520,505,518
308298,504,498,511
308301,507,518,481
308305,505,529,522
308310,504,518,514
308314,500,511,503
308318,514,505,514
308322,509,518,539
308326,501,557,538
308330,507,512,488
308334,509,498,484
308338,501,494,488
308342,503,489,494
308346,509,509,532
308350,512,505,517
308355,507,499,468
308358,505,505,473
308362,502,500,494
308366,507,495,534
308370,512,545,541
308374,509,511,506
308378,503,486,497
308382,506,494,497
308386,511,495,490
308390,505,487,476
308395,506,515,504
308399,511,515,500
308403,516,519,496
308407,503,537,541
308411,497,558,559
308414,498,493,490
308418,511,498,485
308422,512,488,492
308426,509,488,496
308430,508,476,482
308434,500,493,516
308439,505,539,546
308443,511,512,495
308447,510,489,485
308451,513,502,499
308455,507,527,515
308459,509,533,522
308463,510,561,560
308467,502,527,520
308470,502,491,477
308474,510,499,511
308478,512,502,504
308483,513,503,496
308487,515,491,513
308491,510,515,519
308495,505,507,506
308499,502,528,518
308503,505,533,509
308507,508,504,509
308511,507,506,521
308515,508,481,518
308519,509,485,521
308524,511,502,489
308527,501,506,507
308531,492,533,544
308535,498,528,525
308539,512,504,495
308543,525,503,504
308547,507,504,500
308551,497,523,514
308555,507,493,512
308559,503,490,519
308563,499,502,531
308568,501,516,503
308572,518,506,495
308576,518,499,497
308580,512,517,496
308583,502,515,509
308587,499,529,525
308591,506,503,511
308595,504,501,520
308599,512,492,507
308603,516,476,501
308608,504,493,503
308612,502,512,502
308616,506,532,536
308620,512,527,522
308624,507,483,471
308628,504,478,469
308632,518,551,518
308636,516,537,527
308639,495,498,514
308643,505,519,524
308647,504,508,503
308652,502,520,498
308656,507,496,499
308660,513,507,519
308664,504,522,536
308668,510,518,506
308672,512,495,471
308676,507,505,494
308680,495,504,505
308684,502,507,493
308688,510,496,521
308692,510,555,558
308696,515,527,530
308700,511,501,501
308704,505,494,496
308708,511,521,514
308712,505,529,524
308716,503,501,508
308720,499,502,503
308724,503,497,501
308728,504,478,489
308732,507,507,494
308737,507,533,530
308741,508,516,514
308745,515,482,492
308749,511,487,496
308752,513,509,512
308756,509,496,510
308760,499,499,517
308764,506,512,526
308768,509,526,514
308772,503,531,498
308776,499,521,505
308781,497,520,525
308785,502,517,511
308789,513,491,500
308793,508,507,485
308797,497,499,473
308801,507,496,484
308805,508,502,510
308808,515,528,520
308812,521,517,497
308816,514,499,478
308820,499,520,529
308825,505,527,549
308829,510,525,538
308833,508,515,525
308837,503,508,497
308841,496,493,481
308845,494,478,492
308849,511,501,528
308853,510,522,543
308857,508,511,487
308861,506,491,474
308865,512,512,491
308869,513,524,518
308873,512,505,509
308877,507,499,488
308881,505,512,512
308885,512,536,540
308889,515,533,510
308893,513,483,487
308897,511,494,498
308901,506,501,511
308905,507,518,513
308910,506,510,501
308914,505,505,507
308918,503,504,518
308921,504,514,535
308925,516,518,506
308929,507,501,479
308933,497,467,476
308937,497,489,493
308941,505,532,526
308945,512,537,513
308950,519,514,497
308954,510,509,536
308958,509,522,524
308962,505,509,511
308966,507,514,508
308970,506,523,513
308974,504,502,501
308977,506,492,496
308981,508,494,493
308985,508,513,505
308989,515,525,520
308994,508,518,520
308998,505,494,514
309002,504,501,506
309006,507,525,513
309010,504,517,516
309014,505,490,484
309018,510,515,516
309022,514,504,508
309026,511,499,514
309030,512,496,509
309033,496,512,518
309038,506,518,508
309042,513,494,494
309046,511,520,531
309050,510,534,539
309054,509,496,492
309058,503,480,479
309062,505,495,494
309066,507,506,511
309070,510,507,511
309074,508,518,498
309079,503,508,496
309083,503,499,513
309087,506,515,522
309090,506,512,521
309094,510,521,514
309098,511,499,488
309102,506,513,506
309106,505,515,517
309110,499,499,509
309114,504,505,499
309118,514,501,497
309123,502,508,502
309127,499,516,498
309131,505,527,508
309135,512,530,528
309139,512,505,499
309143,498,524,519
309146,487,520,518
309150,506,497,491
309154,521,503,498
309158,513,512,514
309163,502,497,515
309167,496,505,532
309171,507,513,520
309175,512,509,502
309179,517,538,546
309183,520,526,523
309187,511,498,471
309191,503,501,488
309195,499,488,509
309199,502,497,481
309202,501,521,497
309207,505,528,539
309211,502,525,524
309215,509,519,511
309219,509,491,499
309223,505,499,503
309227,505,532,505
309231,514,511,522
309235,506,498,520
309239,512,509,511
309243,513,509,507
309248,507,521,502
309252,509,528,502
309255,503,508,503
309258,503,512,513
309262,506,528,533
309266,511,513,532
309270,510,492,511
309274,514,479,501
309278,507,503,508
309282,509,512,526
309286,508,517,522
309291,509,521,500
309295,504,517,492
309299,507,500,505
309303,508,508,502
309307,501,514,507
309310,502,512,510
309313,520,514,512
309317,509,515,513
309321,510,541,523
309325,509,523,514
309329,509,492,476
309334,501,503,502
309338,504,500,521
309342,500,508,527
309346,504,507,508
309350,509,509,492
309354,514,502,490
309358,506,510,515
309362,511,529,541
309365,519,528,514
309368,508,512,488
309372,501,522,534
309377,510,523,527
309381,506,495,489
309385,513,517,500
309389,512,513,513
309393,505,482,504
309397,507,484,496
309401,508,495,504
309405,505,496,515
309409,497,519,541
309413,514,539,523
309417,510,517,511
309421,500,522,519
309424,507,514,517
309428,510,509,505
309432,499,498,502
309436,499,496,486
309440,511,500,503
309444,513,506,511
309448,510,520,524
309452,510,513,515
309456,505,527,499
309460,507,515,503
309465,515,512,524
309469,515,521,534
309473,502,497,506
309476,512,483,486
309479,507,486,498
309483,502,502,526
309487,495,499,495
309491,492,512,485
309495,509,513,492
309499,512,499,485
309504,507,518,488
309508,506,532,513
309512,505,540,540
309516,512,504,509
309520,505,487,512
309524,506,508,516
309528,506,496,505
309531,511,509,507
309535,508,536,533
309539,511,523,506
309543,509,499,489
309548,507,504,492
309552,507,501,504
309556,508,496,513
309560,509,527,527
309564,507,504,526
309568,502,501,488
309572,498,496,473
309576,499,521,510
309580,510,526,516
309584,506,494,488
309587,502,498,490
309592,503,508,512
309596,507,509,528
309600,508,545,534
309604,506,536,524
309608,502,523,515
309612,505,498,504
309616,512,487,495
309620,514,487,506
309624,511,487,503
309628,496,514,522
309633,502,517,528
309637,506,508,506
309641,506,538,540
309644,502,544,531
309648,509,507,496
309652,503,510,518
309656,514,507,508
309660,521,506,512
309664,515,508,510
309668,509,492,510
309672,509,494,505
309677,514,492,503
309681,514,511,527
309685,509,531,540
309689,508,520,513
309693,510,499,489
309697,514,521,492
309700,510,522,495
309704,505,526,531
309708,502,503,503
309712,510,496,505
309716,511,509,515
309721,509,515,527
309725,510,515,535
309729,506,501,496
309733,506,492,488
309737,494,504,504
309741,497,505,501
309745,511,533,516
309749,510,517,509
309753,512,505,488
309756,505,514,502
309761,502,526,516
309765,506,488,506
309769,508,498,495
309773,506,529,526
309777,505,513,526
309781,512,513,523
309785,515,539,538
309789,506,526,512
309793,503,501,508
309797,504,485,509
309801,506,487,491
309806,509,471,481
309810,508,525,523
309813,508,536,544
309817,506,520,525
309821,505,510,503
309825,503,503,498
309829,505,540,537
309833,512,544,522
309837,513,509,497
309841,512,499,516
309846,508,477,488
309850,502,504,492
309854,496,506,509
309858,506,494,495
309862,505,502,492
309866,511,514,527
309869,519,518,510
309873,505,521,503
309877,498,524,534
309881,509,515,529
309885,506,508,501
309890,508,497,498
309894,510,510,508
309898,508,534,515
309902,511,527,535
309906,511,510,518
309910,506,508,541
309914,504,556,552
309918,508,509,491
309922,513,459,470
309925,508,475,506
309929,503,521,536
309934,511,486,493
309938,513,491,508
309942,512,522,504
309946,500,524,495
309950,502,524,510
309954,506,513,517
309958,512,507,517
309962,525,515,527
309966,517,511,533
309970,505,508,519
309975,508,500,514
309979,506,497,502
309982,514,492,508
309986,516,485,496
309990,509,490,509
309994,506,561,558
309998,513,535,502
310002,508,522,520
310006,507,524,530
310010,502,506,520
310014,503,508,515
310019,511,519,511
310023,507,490,491
310027,506,511,510
310031,503,532,494
310035,503,507,487
310038,509,484,499
310042,504,506,516
310046,501,517,542
310050,505,504,531
310054,520,487,506
310059,517,502,492
310063,519,505,525
310067,499,509,528
310071,494,524,519
310075,505,515,519
310079,509,503,514
310083,509,497,515
310087,505,532,549
310091,501,529,520
310094,505,532,476
310098,511,513,490
310103,509,502,502
310107,507,498,507
310111,505,497,514
310115,505,527,540
310119,511,544,519
310123,505,517,499
310127,501,513,502
310131,508,519,501
310135,509,516,495
310139,502,504,498
310144,498,487,490
310148,516,508,510
310151,515,514,513
310155,514,499,542
310159,508,542,562
310163,500,532,527
310167,499,507,496
310171,508,495,485
310175,511,490,488
310179,509,508,506
310183,517,486,498
310188,513,471,489
310192,508,501,518
310196,511,535,529
310200,512,534,507
310204,503,534,500
310207,505,492,499
310211,519,498,490
310215,520,504,493
310219,506,504,490
310223,502,496,496
310227,497,518,507
310232,509,528,504
310236,511,480,520
310240,511,541,559
310244,508,520,524
310248,514,486,485
310252,512,492,492
310256,502,503,526
310260,507,522,521
310263,507,519,499
310267,508,527,511
310272,510,538,535
310276,504,506,497
310280,493,504,488
310284,518,514,506
310288,513,504,493
310292,506,495,482
310296,507,505,499
310300,508,500,507
310304,505,498,503
310308,510,493,508
310312,507,535,541
310317,514,544,534
310320,509,512,493
310324,490,509,492
310328,507,487,506
310332,511,486,514
310336,512,494,530
310340,504,505,540
310344,508,491,495
310348,516,497,485
310352,515,522,531
310356,497,531,529
310361,505,549,529
310365,506,520,478
310369,509,502,481
310373,503,509,501
310376,495,520,505
310380,503,534,522
310384,520,530,521
310388,499,516,495
310392,498,518,506
310396,508,515,511
310401,501,496,504
310405,513,497,507
310409,508,520,527
310413,512,532,569
310417,511,496,492
310421,519,469,459
310425,527,476,472
310429,518,504,495
310432,510,538,542
310436,523,532,505
310440,511,533,506
310445,505,526,517
310449,507,523,515
310453,499,477,486
310457,503,505,520
310461,507,516,522
310465,506,498,494
310469,509,506,495
310473,501,496,497
310477,502,494,496
310481,507,507,486
310486,515,500,497
310489,513,485,500
310493,507,530,538
310497,510,523,538
310501,500,508,496
310505,510,546,518
310509,511,538,528
310513,512,507,501
310517,508,511,501
310521,507,515,495
310525,488,509,487
310530,497,519,522
310534,514,504,508
310538,516,482,500
310542,517,496,506
310545,510,530,496
310549,501,535,521
310553,500,465,516
310557,508,528,530
310561,509,526,503
310565,512,516,511
310569,510,515,510
310574,510,492,505
310578,507,494,523
310582,502,503,537
310586,507,455,471
310590,506,494,479
310594,500,503,504
310598,503,512,518
310601,507,517,505
310605,500,532,520
310609,507,544,567
310614,510,549,534
310618,507,489,465
310622,507,490,463
310626,512,512,515
310630,493,493,499
310634,503,474,482
310638,508,502,481
310642,507,521,512
310646,504,511,565
310650,509,519,528
310654,513,472,471
310658,512,499,490
310662,506,514,500
310666,501,532,510
310670,500,536,523
310674,500,488,500
310678,498,528,532
310682,519,554,517
310686,517,513,501
310690,510,493,488
310694,491,489,492
310699,500,486,516
310703,511,500,508
310707,508,513,502
310711,509,493,490
310714,514,478,480
310718,512,487,483
310722,504,503,504
310726,508,567,579
310730,511,564,578
310734,517,524,486
310738,502,502,473
310743,502,505,510
310747,501,489,505
310751,504,497,514
310755,501,503,522
310759,506,504,508
310763,508,490,486
310767,498,479,478
310770,504,522,518
310774,512,493,481
310778,507,486,478
310782,500,500,519
310787,527,510,552
310791,523,519,561
310795,503,533,542
310799,506,518,493
310803,513,500,505
310807,518,509,509
310811,520,484,489
310815,509,518,507
310819,508,481,484
310823,513,468,504
310827,515,521,532
310831,507,547,546
310835,516,510,506
310839,512,540,532
310843,504,518,545
310847,500,471,472
310851,503,491,472
310855,494,501,506
310859,503,512,512
310863,510,495,511
310867,503,505,519
310872,510,500,495
310876,517,514,490
310880,518,512,493
310883,513,503,518
310887,514,525,535
310891,512,549,543
310895,506,486,503
310899,505,494,492
310903,501,499,486
310907,504,517,491
310912,514,513,487
310916,509,522,504
310920,504,521,521
310924,503,519,557
310928,512,545,537
310932,506,500,481
310935,494,502,467
310938,495,509,500
310942,509,517,498
310946,517,491,475
310950,514,504,507
310955,506,519,538
310959,501,529,515
310963,508,503,496
310967,517,495,487
310971,515,505,507
310975,507,513,521
310979,501,514,540
310983,508,530,538
310987,508,537,504
310990,504,503,475
310993,509,495,492
310998,509,504,516
311002,508,516,506
311006,496,505,492
311010,497,519,509
311014,507,517,505
311018,512,524,512
311022,496,533,518
311026,512,493,492
311030,510,495,491
311034,516,495,494
311038,516,477,529
311043,515,537,539
311046,508,525,514
311049,505,524,509
311053,506,509,505
311057,507,494,499
311061,516,491,499
311065,510,529,500
311069,502,536,494
311073,506,521,509
311077,502,533,503
311081,499,530,504
311086,510,512,500
311090,501,508,517
311094,500,505,516
311098,508,518,514
311101,512,494,490
311104,506,462,480
311108,509,489,488
311112,509,518,517
311116,508,516,524
311120,502,504,501
311124,498,496,506
311129,489,494,510
311133,506,500,502
311137,509,514,499
311141,512,513,501
311145,512,514,506
311149,505,512,500
311153,509,506,494
311156,507,503,505
311159,506,500,503
311163,512,492,496
311168,510,483,501
311172,512,481,508
311176,513,487,495
311180,510,503,494
311184,505,518,484
311188,511,525,468
311192,510,523,480
311196,507,518,513
311200,506,512,523
311204,504,503,506
311208,516,500,495
311212,522,505,493
311215,512,510,505
311219,511,503,496
311223,515,509,498
311227,507,514,498
311231,508,511,495
311235,507,508,494
311239,511,511,496
311243,514,513,494
311247,512,509,487
311251,515,504,484
311256,506,502,480
311260,504,507,476
311264,505,502,483
311267,502,502,485
311271,508,500,485
311275,504,496,488
311279,503,497,485
311283,507,501,483
311287,512,504,491
311291,512,495,493
311296,504,484,491
311300,510,483,489
311304,514,486,496
311308,510,489,501
311312,513,489,499
311316,514,492,498
311320,509,496,497
311323,506,496,496
311327,512,493,495
311331,515,489,492
311335,499,491,495
311340,500,495,500
311344,498,493,500
311348,504,489,489
311352,503,487,490
311356,499,484,490
311360,500,488,494
311364,506,493,493
311368,502,492,491
311372,492,489,499
311376,503,488,501
311379,507,490,495
311384,500,493,494
311388,502,491,494
311392,503,490,496
311396,501,489,499
311400,505,492,501
311404,504,497,506
311408,506,493,509
311412,505,490,511
311416,496,491,510
311420,502,493,508
311425,504,495,503
311429,505,496,507
311433,500,498,507
311436,500,500,506
311440,503,502,504
311444,503,503,505
311448,503,500,508
311452,503,499,506
311456,504,503,507
311460,501,508,513
311464,511,504,510
311469,503,500,508
311473,500,506,508
311477,503,507,504
311481,505,507,508
311485,505,504,510
311489,505,507,513
311492,504,503,502
311496,509,505,517
311500,504,508,519
311504,510,503,517
311508,508,501,520
311513,508,505,522
311517,512,512,521
311521,510,514,520
311525,508,508,514
311529,510,509,509
311533,508,509,509
311537,510,510,516
311541,514,509,518
311545,508,507,520
311548,503,508,515
311553,506,512,510
311557,510,512,512
311561,509,509,507
311565,508,506,520
311569,503,512,535
311573,503,518,518
311577,507,516,523
311581,510,507,523
311585,508,503,515
311589,509,505,515
311593,511,508,516
311598,508,510,514
311602,506,508,514
311605,505,509,512
311609,510,511,507
311613,514,513,509
311617,511,514,510
311621,507,511,514
311625,503,510,517
311629,505,512,513
311633,506,515,509
311638,508,514,504
311642,504,513,496
311646,507,510,494
311650,512,511,500
311654,513,523,506
311658,503,518,525
311661,503,515,535
311665,511,517,531
311669,508,513,530
311673,512,512,528
311677,515,515,527
311682,512,516,527
311686,509,513,525
311690,513,513,521
311694,513,515,519
311698,511,511,523
311702,513,510,518
311706,518,514,514
311710,512,518,514
311714,510,520,515
311717,506,520,516
311721,505,517,516
311726,510,516,514
311730,509,519,514
311734,509,518,516
311738,509,517,514
311742,510,521,511
311746,509,527,515
311750,508,526,517
311754,509,521,513
311758,509,516,507
311762,509,516,510
311767,508,518,507
311771,503,522,510
311774,504,520,514
311778,505,519,513
311782,506,518,513
311786,507,513,514
311790,511,514,515
311794,511,516,517
311798,511,514,515
311802,506,513,511
311806,507,515,509
311811,512,515,511
311815,511,511,511
311819,512,511,511
311823,513,513,511
311827,511,518,512
311830,512,517,513
311834,502,513,515
311838,504,509,516
311842,515,512,512
311846,508,517,508
311851,510,517,506
311855,512,513,510
311859,512,517,514
311863,511,520,514
311867,509,516,510
311871,505,514,512
311875,506,514,523
311879,504,512,524
311883,510,514,518
311886,511,514,517
311890,510,513,518
311895,510,515,515
311899,512,513,514
311903,511,510,512
311907,503,513,513
311911,509,512,515
311915,508,509,517
311919,505,506,513
311923,508,514,510
311927,505,522,513
311931,505,517,509
311936,505,511,514
311940,509,503,512
311943,508,508,517
311947,507,514,518
311951,507,516,514
311955,505,511,519
311959,499,508,518
311963,510,515,515
311967,509,518,514
311971,506,518,516
311975,498,518,517
311980,509,518,518
311984,509,513,518
311988,509,511,516
311992,507,515,518
311996,509,519,520
311999,510,515,515
312003,511,508,516
312007,503,505,515
312011,504,505,514
312015,510,508,517
312019,514,513,518
312024,511,515,518
312028,508,512,521
312032,507,509,519
312036,510,509,513
312040,512,511,515
312044,514,506,513
312048,501,504,511
312052,500,507,510
312055,507,512,517
312059,507,513,519
312064,504,511,518
312068,502,509,516
312072,507,509,516
312076,512,516,513
312080,510,517,513
312084,504,512,514
312088,506,507,515
312092,507,508,519
312096,502,512,518
312100,511,514,514
312104,506,505,516
312109,512,504,512
312112,511,510,511
312116,513,517,513
312120,515,518,517
312124,511,512,515
312128,509,508,514
312132,512,506,514
312136,511,511,516
312140,509,511,515
312144,506,508,518
312148,505,508,518
312153,508,510,518
312157,508,512,513
312161,506,512,513
312165,507,511,519
312168,507,511,519
312172,506,513,519
312176,505,512,516
312180,505,507,514
312184,512,507,517
312188,512,511,516
312193,513,514,514
312197,508,511,517
312201,507,506,519
312205,510,502,515
312209,512,506,514
312213,505,510,514
312217,508,511,511
312221,505,516,514
312224,503,515,515
312228,501,518,511
312232,508,518,508
312237,509,515,510
312241,508,515,507
312245,509,516,508
312249,508,516,506
312253,506,514,509
312257,506,511,509
312261,500,511,508
312265,506,516,511
312269,505,516,508
312273,505,513,508
312278,509,509,510
312281,508,507,509
312285,507,511,507
312289,507,511,504
312293,511,509,505
312297,506,507,505
312301,495,508,504
312305,506,512,503
312309,513,518,504
312313,512,515,508
312317,509,508,508
312322,506,504,505
312326,509,508,505
312330,510,510,507
312334,510,509,508
312337,502,506,508
312341,508,508,509
312345,504,514,507
312349,505,512,503
312353,505,511,504
312357,507,510,507
312361,506,510,507
312366,506,516,509
312370,508,518,510
312374,513,515,512
312378,503,513,511
312382,497,515,508
312386,498,514,509
312390,492,513,511
312393,501,513,510
312397,503,515,509
312401,510,518,511
312406,508,517,510
312410,498,514,510
312414,505,514,510
312418,503,514,509
312422,510,516,511
312426,511,517,514
312430,503,509,515
312434,507,505,515
312438,507,509,514
312442,504,514,512
312446,510,512,511
312450,506,510,514
312454,512,509,513
312458,505,511,512
312462,511,512,511
312466,510,512,509
312470,507,512,508
312474,502,512,508
312478,512,512,509
312482,510,515,514
312486,506,514,514
312491,503,513,515
312495,506,513,514
312499,510,515,513
312503,511,517,512
312506,509,520,513
312510,507,518,512
312514,508,517,515
312518,504,519,515
312522,509,518,516
312526,506,513,514
312530,503,512,514
312535,503,514,513
312539,510,516,514
312543,515,520,515
312547,505,521,516
312551,503,520,517
312555,504,519,514
312559,502,517,513
312562,504,514,512
312566,503,512,510
312570,512,513,509
312574,508,515,509
312579,510,517,512
312583,504,516,512
312587,506,518,510
312591,508,516,511
312595,508,511,511
312599,506,513,510
312603,504,514,512
312607,503,510,513
312611,500,509,513
312615,508,512,513
312620,519,514,512
312624,510,511,512
312628,502,507,516
312632,505,506,517
312636,508,512,517
312640,514,512,515
312644,507,509,514
312648,502,507,514
312652,503,506,515
312656,509,508,516
312660,510,508,518
312665,507,507,517
312669,505,508,516
312672,506,513,515
312676,507,514,515
312680,507,511,514
312684,509,510,516
312688,506,510,519
312692,506,512,519
312696,508,511,520
312700,512,506,518
312705,511,504,516
312709,512,506,515
312713,509,509,515
312717,509,512,517
312721,508,508,516
312725,505,505,519
312728,505,500,518
312732,505,502,518
312736,509,503,516
312740,509,503,516
312744,509,505,513
312749,505,507,510
312753,506,510,511
312757,510,510,511
312761,508,507,510
312765,505,507,511
312769,507,510,510
312773,509,511,510
312777,509,510,510
312781,508,506,510
312784,506,510,511
312788,510,514,512
312793,509,515,513
312797,506,513,511
312801,500,510,509
312805,501,512,509
312809,508,513,514
312813,511,511,512
312817,509,510,507
312821,508,507,508
312825,505,507,510
312829,503,507,510
312834,507,507,509
312838,507,505,510
312841,503,503,510
312845,506,506,509
312849,509,510,509
312853,508,513,511
312857,505,512,510
312861,502,510,510
312865,500,511,512
312869,509,513,512
312873,511,511,511
312878,508,510,511
312882,508,510,511
312886,516,512,508
312890,511,516,509
312894,509,515,508
312897,507,510,507
312901,508,511,505
312905,509,518,508
312909,509,514,508
312913,509,507,510
312918,507,506,510
312922,504,510,510
312926,511,513,508
312930,508,513,508
312934,505,508,508
312938,504,504,508
312942,507,503,506
312946,509,505,507
312950,510,507,505
312953,507,508,505
312957,503,509,507
312962,506,509,507
312966,511,513,507
312970,512,511,507
312974,509,507,508
312978,515,506,507
312982,516,509,506
312986,513,509,507
312990,510,509,510
312994,507,509,511
312998,505,509,510
313003,507,512,509
313007,510,512,510
313010,505,511,512
313014,500,507,509
313018,510,506,509
313022,507,511,510
313026,505,510,509
313030,510,507,509
313034,508,508,508
313038,507,510,508
313042,511,512,508
313047,514,511,507
313051,512,508,506
313055,508,507,506
313059,509,509,507
313063,510,511,508
313066,510,511,508
313070,512,508,507
313074,510,507,505
313078,512,510,505
313082,506,512,507
313086,506,511,508
313091,512,506,509
313095,509,503,508
313099,506,507,510
313103,510,507,509
313107,511,508,509
313111,505,506,509
313115,502,504,510
313119,511,506,509
313122,510,507,510
313126,506,505,511
313131,507,505,510
313135,506,511,511
313139,507,515,512
313143,506,511,509
313147,504,507,508
313151,502,508,508
313155,506,511,509
313159,510,511,507
313163,515,508,507
313167,514,506,506
313171,510,509,505
313176,510,512,505
313179,511,512,506
313183,510,510,506
313187,504,508,507
313191,509,510,506
313195,510,513,505
313199,511,514,504
313203,509,512,502
313207,509,510,500
313211,508,513,500
313216,512,518,502
313220,509,517,503
313224,507,512,503
313228,501,511,506
313232,501,512,508
313235,505,515,506
313239,508,514,505
313243,506,510,506
313247,504,507,507
313251,505,507,506
313255,508,508,506
313260,507,508,506
313264,499,508,508
313268,512,507,508
313272,511,507,507
313276,512,508,505
313280,509,506,503
313284,504,504,500
313288,505,506,502
313291,506,510,504
313295,509,510,507
313299,510,507,509
313304,511,503,506
313308,505,505,505
313312,507,508,507
313316,509,506,507
313320,508,503,508
313324,510,504,508
313328,513,508,510
313332,516,509,511
313336,514,511,511
313340,508,506,508
313345,506,502,507
313348,505,507,504
313352,507,510,504
313356,504,511,505
313360,506,510,506
313364,508,508,504
313368,510,510,506
313372,506,511,509
313376,509,506,508
313380,500,503,505
313384,507,508,504
313389,511,511,504
313393,514,510,508
313397,511,507,512
313401,507,505,512
313404,507,506,510
313408,509,506,506
313412,505,506,507
313416,506,506,508
313420,511,505,507
313424,511,504,506
313428,509,505,507
313433,506,505,506
