62984,506,514,507
62988,504,511,506
62992,509,511,509
62996,507,512,511
63000,509,514,510
63004,507,512,509
63008,503,507,508
63012,503,507,508
63016,506,511,509
63021,505,512,508
63025,507,509,509
63029,507,509,511
63032,507,513,511
63035,508,519,509
63038,510,518,510
63042,507,512,510
63046,509,509,509
63050,506,511,509
63054,508,514,509
63058,506,511,508
63063,507,507,508
63067,506,505,507
63071,508,512,507
63075,510,514,505
63079,509,512,508
63083,508,509,509
63087,508,510,509
63091,508,515,510
63095,503,519,510
63099,501,512,507
63104,502,508,508
63108,502,510,508
63112,502,509,507
63116,505,509,507
63120,511,508,506
63124,511,506,506
63128,504,509,508
63132,505,513,509
63136,508,512,508
63140,508,508,507
63144,507,505,511
63149,507,509,513
63153,506,514,513
63157,507,514,512
63161,507,510,510
63165,506,507,508
63169,511,510,510
63173,510,512,511
63177,510,508,509
63181,510,506,506
63185,502,505,506
63190,499,509,509
63193,508,513,509
63196,508,511,507
63199,507,506,508
63202,507,508,509
63206,506,511,511
63210,508,512,509
63214,508,510,511
63218,512,504,513
63222,506,506,512
63226,507,509,513
63230,508,510,512
63235,508,509,510
63239,507,508,507
63243,506,508,513
63247,508,508,518
63251,512,505,513
63255,516,502,512
63259,509,502,511
63263,506,506,511
63267,505,512,510
63271,508,512,510
63276,511,506,508
63280,506,504,508
63284,503,505,506
63288,509,511,506
63292,514,516,507
63296,512,514,506
63300,509,512,509
63304,509,511,509
63308,513,514,508
63312,510,511,508
63316,509,510,507
63321,505,508,506
63325,506,509,506
63329,509,510,505
63333,511,508,507
63337,511,505,509
63341,509,505,510
63345,507,508,509
63349,511,512,509
63353,512,512,511
63356,507,508,512
63360,513,507,511
63363,507,510,510
63367,507,513,510
63371,509,513,512
63375,514,513,511
63379,510,513,510
63383,507,513,510
63387,507,512,511
63391,509,508,506
63395,511,507,508
63399,508,508,508
63404,505,512,506
63408,509,512,508
63412,508,506,508
63416,508,503,507
63420,503,507,507
63424,509,510,509
63428,510,510,509
63432,508,508,509
63436,505,506,511
63440,507,508,510
63444,512,511,509
63449,508,512,509
63453,502,511,509
63457,507,513,513
63461,510,515,514
63465,503,514,511
63469,503,510,509
63473,503,503,508
63477,506,502,508
63481,506,507,508
63485,502,513,510
63490,504,513,510
63494,506,509,508
63498,506,509,507
63502,505,511,508
63506,506,513,507
63510,508,508,505
63514,509,506,503
63517,505,510,503
63520,508,516,505
63523,509,514,511
63527,510,506,512
63532,509,502,510
63536,506,504,511
63540,509,510,514
63544,507,511,514
63548,504,507,510
63552,505,506,507
63556,508,509,509
63560,510,510,504
63564,506,509,502
63568,507,509,505
63572,507,508,509
63577,507,509,507
63581,507,510,506
63585,508,508,502
63589,507,505,506
63593,508,506,509
63597,505,508,508
63601,504,508,510
63605,507,505,509
63609,503,504,509
63613,503,505,509
63618,504,508,510
63622,509,510,511
63626,508,506,511
63630,510,503,508
63634,510,503,507
63638,509,504,506
63642,506,507,507
63646,508,506,503
63650,506,507,505
63654,507,506,507
63659,509,508,512
63663,512,507,510
63667,514,501,510
63671,513,498,508
63675,504,505,507
63679,504,513,508
63682,507,515,511
63685,508,509,510
63688,508,503,509
63692,508,506,510
63696,507,511,511
63700,510,511,512
63705,508,509,512
63709,500,508,511
63713,503,509,510
63717,507,513,510
63721,507,511,509
63725,504,510,510
63729,505,509,514
63733,509,511,510
63737,506,513,512
63741,509,510,512
63746,510,510,513
63750,510,512,514
63754,508,512,513
63758,511,510,511
63762,510,506,507
63766,512,504,508
63770,510,507,510
63774,507,513,509
63778,507,514,507
63782,511,508,504
63787,508,504,507
63791,509,506,508
63795,504,507,508
63799,506,507,509
63803,511,505,509
63807,509,504,509
63811,509,507,508
63815,508,511,509
63819,508,512,508
63823,511,510,507
63827,503,511,507
63832,503,514,510
63836,503,512,507
63840,508,508,507
63843,508,504,505
63846,507,501,505
63849,510,505,505
63853,507,510,506
63857,514,510,507
63861,504,509,509
63865,508,508,510
63869,508,505,508
63874,505,505,507
63878,505,505,507
63882,511,505,506
63886,513,508,508
63890,507,511,506
63894,505,509,504
63898,506,505,503
63902,506,502,503
63906,503,507,505
63910,504,513,507
63915,507,513,507
63919,506,508,507
63923,512,507,506
63927,509,509,506
63931,507,512,506
63935,507,512,508
63939,511,508,507
63943,509,505,507
63947,511,506,507
63951,511,510,506
63955,510,511,506
63960,512,507,507
63964,509,504,508
63968,508,504,507
63972,507,507,510
63976,505,506,511
63980,505,501,509
63984,508,502,508
63988,504,506,509
63992,504,508,507
63996,507,509,509
64001,506,506,509
64005,507,504,510
64008,508,506,511
64011,508,511,511
64014,508,510,509
64018,502,509,508
64022,502,510,508
64026,508,513,508
64030,514,514,507
64034,514,510,506
64038,510,508,507
64043,511,510,510
64047,508,514,511
64051,503,516,511
64055,503,515,516
64059,504,510,511
64063,503,510,507
64067,507,513,507
64071,506,513,510
64075,510,511,510
64079,511,513,508
64083,509,514,508
64088,510,515,511
64092,506,512,510
64096,504,509,509
64100,502,505,509
64104,498,510,511
64108,507,515,513
64112,508,513,510
64116,509,508,508
64120,506,508,510
64124,504,513,512
64129,506,514,511
64133,511,512,508
64137,512,507,508
64141,505,508,511
64145,508,509,511
64149,510,510,511
64153,508,507,509
64157,510,507,508
64161,512,511,510
64165,506,515,509
64169,512,513,507
64173,510,511,506
64176,504,509,506
64179,503,509,507
64183,506,513,510
64187,510,513,510
64191,510,509,508
64195,509,507,507
64199,510,509,510
64203,509,513,509
64207,510,513,508
64211,505,509,511
64216,499,509,511
64220,505,509,510
64224,511,509,509
64228,511,508,507
64232,503,506,507
64236,504,509,508
64240,505,512,509
64244,505,514,508
64248,507,509,506
64252,508,505,505
64257,509,505,504
64261,507,508,505
64265,509,509,509
64269,510,507,508
64273,507,504,507
64277,504,504,508
64281,503,508,507
64285,506,511,509
64289,508,506,507
64293,505,502,506
64297,504,506,507
64302,507,511,507
64306,512,513,509
64310,511,507,507
64314,509,505,509
64318,514,508,512
64322,512,510,511
64326,512,506,507
64330,506,503,506
64334,502,501,507
64337,495,507,509
64340,507,511,509
64344,506,508,507
64348,504,504,508
64352,505,503,510
64356,507,505,509
64360,508,510,506
64364,511,509,506
64368,508,504,508
64372,507,503,508
64376,509,508,509
64380,514,513,510
64385,508,512,509
64389,511,508,510
64393,512,510,511
64397,504,513,511
64401,506,513,511
64405,507,509,512
64409,509,505,512
64413,512,506,506
64417,507,509,505
64421,508,508,505
64425,506,507,503
64430,507,505,504
64434,506,506,507
64438,505,509,507
64442,507,510,507
64446,507,505,503
64450,509,502,501
64454,506,504,500
64458,505,511,501
64462,504,510,503
64466,511,506,505
64471,507,504,505
64475,509,506,504
64479,512,511,504
64483,515,512,504
64487,511,504,502
64491,509,502,505
64495,507,507,507
64498,507,513,509
64501,507,514,508
64504,510,507,507
64507,508,506,510
64512,515,510,513
64516,513,513,513
64520,512,508,511
64524,509,503,507
64528,508,503,507
64532,508,505,507
64536,510,508,509
64540,512,506,507
64544,505,505,507
64548,504,509,507
64552,509,512,506
64557,511,512,507
64561,512,510,507
64565,510,504,508
64569,503,505,508
64573,505,510,507
64577,508,513,509
64581,509,511,507
64585,505,510,506
64589,513,513,506
64593,510,515,509
64598,505,514,507
64602,510,511,506
64606,513,508,507
64610,510,507,507
64614,505,509,508
64618,505,508,507
64622,506,506,505
64626,506,507,508
64630,504,510,509
64634,508,514,508
64638,509,512,508
64643,508,506,507
64647,509,506,504
64651,507,511,504
64655,509,513,507
64659,512,508,507
64662,509,504,506
64665,503,507,508
64668,505,510,510
64672,508,514,511
64676,508,513,509
64680,504,510,507
64685,504,513,510
64689,508,513,510
64693,510,512,507
64697,510,507,504
64701,504,501,507
64705,501,507,511
64709,503,513,512
64713,503,513,512
64717,510,508,510
64721,509,505,505
64726,506,509,504
64730,509,516,503
64734,512,515,505
64738,510,509,506
64742,509,509,507
64746,508,511,506
64750,509,515,505
64754,512,515,504
64758,510,508,507
64762,505,505,509
64766,505,507,506
64771,506,510,504
64775,511,513,504
64779,511,510,504
64783,506,509,508
64787,509,507,506
64791,507,510,506
64795,503,509,506
64799,506,506,506
64803,508,507,508
64807,506,508,510
64812,508,510,509
64816,512,508,506
64820,503,505,506
64823,499,508,507
64826,504,514,508
64829,508,513,506
64833,510,508,508
64837,507,504,511
64841,503,504,512
64845,506,510,511
64849,512,511,509
64854,512,509,510
64858,507,510,510
64862,510,512,506
64866,502,516,508
64870,507,517,510
64874,503,509,506
64878,505,508,506
64882,508,509,508
64886,513,511,509
64890,509,511,506
64894,513,508,505
64899,508,509,508
64903,509,512,510
64907,507,516,509
64911,506,516,507
64915,509,509,507
64919,507,507,507
64923,507,508,509
64927,509,512,508
64931,514,510,508
64935,509,505,509
64940,506,504,512
64944,507,507,512
64948,509,511,510
64952,512,515,512
64956,504,513,509
64960,506,511,506
64964,506,512,506
64968,509,513,506
64972,508,511,507
64976,506,512,510
64980,506,513,511
64985,510,514,509
64988,509,516,509
64991,509,517,507
64994,507,513,508
64998,503,509,511
65002,504,511,511
65006,508,513,510
65010,506,510,510
65014,507,507,510
65018,509,510,509
65022,505,515,508
65027,502,515,507
65031,508,512,505
65035,512,516,507
65039,506,522,511
65043,500,526,517
65047,500,519,513
65051,499,513,512
65055,505,509,510
65059,509,513,511
65063,506,517,511
65068,505,514,514
65072,500,509,515
65076,496,509,516
65080,502,513,514
65084,506,515,512
65088,510,513,512
65092,513,511,513
65096,508,510,514
65100,507,513,512
65104,513,513,509
65108,506,507,508
65113,502,507,509
65117,503,510,510
65121,511,511,514
65125,514,509,513
65129,510,503,510
65133,508,501,510
65137,509,503,511
65141,507,508,511
65145,506,511,513
65148,505,507,512
65152,509,504,512
65155,511,507,510
65159,506,510,512
65163,507,509,512
65167,509,502,510
65171,507,501,508
65175,505,504,509
65179,511,507,511
65183,511,508,511
65187,508,504,505
65191,506,501,505
65196,508,503,506
65200,509,507,506
65204,510,507,504
65208,508,508,502
65212,504,508,505
65216,506,510,506
65220,507,511,505
65224,510,511,506
65228,508,507,505
65232,507,508,506
65236,506,512,503
65241,507,512,506
65245,507,510,505
65249,505,506,503
65253,508,504,505
65257,503,505,505
65261,505,507,505
65265,509,503,506
65269,506,501,505
65273,506,504,506
65277,507,510,509
65282,509,511,508
65286,508,507,507
65290,509,503,508
65294,514,507,508
65298,511,513,509
65302,509,509,508
65306,507,503,507
65309,506,503,506
65312,502,507,507
65315,506,510,508
65318,513,506,508
65323,503,504,509
65327,503,504,510
65331,504,506,510
65335,500,512,512
65339,504,512,511
65343,509,509,512
65347,509,506,513
65351,515,508,512
65355,507,509,509
65359,509,507,509
65363,511,504,510
65368,509,505,508
65372,507,509,510
65376,507,509,509
65380,509,507,513
65384,510,506,511
65388,510,508,510
65392,513,511,508
65396,506,510,509
65400,511,504,507
65404,508,502,504
65409,508,503,508
65413,506,507,510
65417,505,507,512
65421,506,506,511
65425,504,505,509
65429,508,506,510
65433,510,510,511
65437,508,509,509
65441,508,507,509
65445,508,506,509
65449,505,508,509
65454,509,509,510
65458,512,509,512
65462,515,508,510
65466,511,512,510
65470,511,516,509
65473,510,512,511
65476,507,509,512
65479,510,504,510
65483,509,502,509
65487,508,506,510
65491,510,511,513
65496,509,511,514
65500,501,505,512
65504,505,505,511
65508,506,510,510
65512,508,510,509
65516,507,507,509
65520,506,507,508
65524,507,510,511
65528,511,508,511
65532,509,507,510
65537,506,506,508
65541,507,504,508
65545,506,507,508
65549,508,511,506
65553,503,508,507
65557,513,506,509
65561,513,505,511
65565,509,508,512
65569,504,512,513
65573,508,511,511
65577,510,506,509
65582,506,505,512
65586,507,507,512
65590,507,511,508
65594,506,508,505
65598,506,503,503
65602,510,504,507
65606,510,510,507
65610,508,513,506
65614,511,509,503
65618,512,509,503
65623,510,510,503
65627,503,513,502
65631,503,513,503
65635,506,508,506
65638,507,505,506
65641,507,506,507
65645,507,508,507
65649,508,512,507
65653,513,512,508
65657,511,509,506
65661,507,509,505
65666,513,513,506
65670,507,511,505
65674,506,507,507
65678,506,507,508
65682,510,512,506
65686,512,518,506
65690,508,515,507
65694,510,511,506
65698,512,511,505
65702,511,510,502
65707,506,513,507
65711,503,510,510
65715,503,506,510
65719,506,503,510
65723,504,506,512
65727,506,511,511
65731,504,510,511
65735,501,508,511
65739,506,505,512
65743,507,506,511
65747,508,507,509
65752,510,505,509
65756,505,502,508
65760,498,502,512
65764,501,504,513
65768,507,506,513
65772,506,508,513
65776,505,510,519
65780,510,507,516
65784,506,508,516
65788,503,507,515
65793,501,505,510
65797,503,506,508
65800,501,507,510
65803,511,510,512
65806,513,510,512
65810,506,510,512
65814,508,509,512
65818,507,507,512
65822,510,512,510
65826,511,512,508
65830,509,510,511
65835,506,505,508
65839,507,507,507
65843,504,513,506
65847,502,516,508
65851,502,513,510
65855,505,511,511
65859,504,513,510
65863,503,515,510
65867,507,515,507
65871,507,512,506
65875,508,513,507
65880,508,516,508
65884,507,518,510
65888,502,513,509
65892,510,511,509
65896,508,513,508
65900,507,515,510
65904,504,517,511
65908,505,514,510
65912,507,513,512
65916,504,515,511
65921,505,516,508
65925,504,515,506
65929,504,512,505
65933,503,512,508
65937,508,512,509
65941,510,516,511
65945,509,514,512
65949,510,512,512
65953,504,509,510
65957,503,509,511
65960,511,513,510
65964,511,512,510
65967,511,509,510
65970,507,505,510
65974,509,507,509
65978,505,508,506
65982,506,508,507
65986,505,505,507
65990,504,504,508
65994,505,510,511
65998,510,514,513
66002,512,509,511
66007,507,503,509
66011,505,505,510
66015,507,510,511
66019,512,510,510
66023,508,506,508
66027,504,502,507
66031,509,505,511
66035,507,505,511
66039,509,503,506
66043,512,503,505
66048,509,502,506
66052,509,501,509
66056,506,505,511
66060,513,507,512
66064,514,505,513
66068,509,503,513
66072,508,503,514
66076,507,507,513
66080,512,507,511
66084,512,502,508
66088,512,504,508
66093,506,510,507
66097,505,511,509
66101,505,510,510
66105,507,507,510
66109,508,507,507
66113,504,510,506
66117,504,512,508
66120,508,512,510
66123,508,509,509
66126,500,510,509
66129,507,514,510
66134,511,514,510
66138,515,509,508
66142,508,503,505
66146,508,503,505
66150,512,508,509
66154,505,511,510
66158,507,510,509
66162,503,506,511
66166,508,507,510
66170,508,508,508
66174,509,510,509
66179,513,508,508
66183,509,505,505
66187,506,508,507
66191,506,511,508
66195,506,510,504
66199,504,508,506
66203,504,505,509
66207,502,504,507
66211,504,508,506
66215,510,511,506
66220,511,508,506
66224,505,508,505
66228,505,513,506
66232,507,514,509
66236,514,513,508
66240,510,509,508
66244,505,509,508
66248,505,511,505
66252,509,510,509
66256,509,509,511
66260,506,507,509
66265,508,507,507
66269,508,510,508
66273,506,512,507
66277,505,510,508
66281,505,506,507
66284,510,503,500
66287,506,509,499
66290,507,514,508
66294,506,512,513
66298,504,510,512
66302,506,511,512
66307,508,512,512
66311,508,510,505
66315,509,510,511
66319,509,509,521
66323,508,506,520
66327,507,511,517
66331,505,509,514
66335,505,505,513
66339,506,506,513
66343,504,508,513
66348,508,510,511
66352,509,510,508
66356,507,505,507
66360,508,501,504
66364,504,507,506
66368,507,515,512
66372,510,512,511
66376,509,504,510
66380,510,504,510
66384,503,508,510
66388,499,509,508
66393,505,507,504
66397,506,502,505
66401,508,504,507
66405,505,507,505
66409,508,513,508
66413,509,512,515
66417,508,508,520
66421,505,506,522
66425,509,512,523
66429,506,507,517
66434,513,503,509
66438,510,500,505
66442,509,505,512
66446,508,513,513
66449,508,511,512
66452,508,506,511
66456,510,507,509
66460,508,509,510
66464,505,509,508
66468,507,505,505
66472,504,505,504
66477,508,507,506
66481,510,513,510
66485,509,517,511
66489,510,515,512
66493,510,514,519
66497,508,515,519
66501,502,503,507
66505,504,496,497
66509,506,501,496
66513,508,504,499
66518,508,505,506
66522,500,506,508
66526,502,520,511
66530,507,514,504
66534,513,507,500
66538,512,504,504
66542,509,510,509
66546,510,510,508
66550,503,510,510
66554,502,514,511
66558,505,517,508
66563,509,516,501
66567,507,514,502
66571,508,526,521
66575,514,524,517
66579,510,511,509
66583,509,502,509
66587,511,508,507
66591,505,513,521
66595,499,522,534
66599,502,525,525
66604,512,532,531
66608,509,530,520
66611,508,505,500
66614,501,493,502
66617,507,501,511
66621,508,503,525
66625,512,512,532
66629,512,527,524
66633,518,525,507
66637,514,536,508
66641,516,522,504
66646,512,519,500
66650,523,505,499
66654,528,491,499
66658,508,497,495
66662,501,510,464
66666,510,536,519
66670,526,556,550
66674,520,534,539
66678,508,516,531
66682,509,510,525
66686,507,509,518
66691,513,490,527
66695,524,508,540
66699,526,522,529
66703,501,553,519
66707,504,533,523
66711,516,517,527
66715,518,517,512
66719,515,539,504
66723,515,486,481
66727,512,496,518
66732,497,515,504
66736,508,512,538
66740,508,530,567
66744,513,522,506
66748,503,481,495
66752,499,483,498
66756,492,527,485
66760,534,500,504
66764,521,505,528
66768,508,495,520
66771,501,509,514
66775,507,537,552
66778,527,576,562
66781,551,530,504
66785,524,489,501
66789,500,508,525
66793,508,513,529
66797,501,504,535
66801,513,488,514
66805,496,494,499
66809,499,521,494
66813,524,538,519
66818,504,546,541
66822,500,557,540
66826,541,566,536
66830,541,513,525
66834,526,496,532
66838,537,510,536
66842,541,518,552
66846,532,527,538
66850,531,496,499
66854,528,513,470
66859,499,510,485
66863,499,485,472
66867,513,479,473
66871,514,501,514
66875,519,542,512
66879,502,543,506
66883,477,488,494
66887,506,459,496
66891,496,477,491
66895,517,499,502
66899,501,526,492
66904,485,517,520
66908,506,521,573
66912,529,532,526
66916,505,555,521
66920,518,512,500
66924,545,463,488
66928,511,456,515
66932,499,524,529
66935,527,532,513
66938,521,520,501
66941,520,509,511
66946,477,537,517
66950,481,553,503
66954,520,540,496
66958,541,536,518
66962,516,461,503
66966,526,473,498
66970,485,503,493
66974,477,534,509
66978,512,488,491
66982,493,490,497
66987,471,478,509
66991,493,515,522
66995,533,509,498
66999,537,510,505
67003,532,494,495
67007,523,530,525
67011,506,534,573
67015,512,558,537
67019,522,542,491
67023,475,508,481
67027,514,560,521
67032,533,566,543
67036,489,469,470
67040,511,435,441
67044,523,489,467
67048,485,442,481
67052,471,471,497
67056,503,483,501
67060,533,499,519
67064,523,503,510
67068,491,514,492
67073,486,535,511
67077,498,562,522
67081,493,566,601
67085,502,566,564
67089,505,516,489
67093,517,480,496
67096,551,507,511
67099,520,584,537
67102,504,503,521
67106,499,463,474
67110,501,464,438
67115,483,470,453
67119,479,486,480
67123,505,519,512
67127,541,500,514
67131,506,504,500
67135,458,532,493
67139,474,540,527
67143,497,534,547
67147,508,575,548
67151,508,542,527
67155,509,498,528
67160,535,458,507
67164,509,480,498
67168,511,477,489
67172,515,508,538
67176,518,547,549
67180,501,559,535
67184,493,529,513
67188,496,482,489
67192,503,475,477
67196,533,460,474
67201,524,464,458
67205,490,540,492
67209,474,498,476
67213,483,493,495
67217,489,569,561
67221,510,502,525
67225,502,462,518
67229,510,521,538
67233,493,541,544
67237,479,539,496
67241,520,570,505
67246,499,515,485
67250,494,463,452
67254,520,420,469
67258,504,493,561
67261,496,506,548
67264,524,468,485
67267,503,553,532
67271,500,535,543
67275,512,473,479
67279,524,471,446
67283,535,517,473
67288,502,515,486
67292,489,593,536
67296,478,540,553
67300,480,482,506
67304,517,459,470
67308,530,492,475
67312,490,513,486
67316,481,527,519
67320,508,490,493
67324,506,501,498
67329,523,549,539
67333,498,566,541
67337,490,579,516
67341,484,505,501
67345,493,450,473
67349,483,440,463
67353,505,521,533
67357,513,542,519
67361,515,563,478
67365,499,532,483
67369,502,483,478
67374,512,465,478
67378,515,493,531
67382,503,546,527
67386,481,536,497
67390,502,466,467
67394,521,444,477
67398,489,474,497
67402,498,502,522
67406,518,558,555
67410,503,574,570
67415,506,495,502
67419,502,483,465
67422,496,506,481
67425,490,473,498
67428,493,502,503
67432,502,507,513
67436,513,472,500
67440,496,450,470
67444,492,460,471
67448,504,487,507
67452,511,524,550
67457,503,542,574
67461,518,543,524
67465,519,624,524
67469,502,547,490
67473,506,437,464
67477,491,453,481
67481,485,492,502
67485,523,477,493
67489,519,484,487
67493,501,499,495
67497,484,529,512
67502,485,531,503
67506,491,526,512
67510,495,517,530
67514,512,514,528
67518,493,527,487
67522,516,527,479
67526,522,539,525
67530,526,521,524
67534,487,489,488
67538,497,511,489
67543,521,506,561
67547,515,501,523
67551,501,531,495
67555,504,492,492
67559,500,496,501
67563,502,507,490
67567,499,521,495
67571,502,512,517
67575,500,482,484
67579,490,496,507
67582,507,508,510
67586,518,510,495
67589,499,504,502
67592,495,487,527
67596,499,465,522
67600,531,493,515
67604,521,491,504
67608,500,477,492
67612,495,530,517
67616,513,545,511
67620,503,532,525
67624,502,511,505
67629,507,531,495
67633,513,478,477
67637,491,469,508
67641,501,518,569
67645,516,521,505
67649,508,515,504
67653,527,504,488
67657,519,489,466
67661,503,485,468
67665,508,530,515
67670,500,522,528
67674,499,503,535
67678,496,502,514
67682,500,469,483
67686,501,458,504
67690,501,547,551
67694,513,544,512
67698,518,522,481
67702,489,503,489
67706,496,482,505
67710,525,494,522
67715,521,525,503
67719,502,514,515
67723,513,518,539
67727,511,500,508
67731,505,513,509
67735,501,497,511
67739,509,492,491
67743,501,502,502
67746,497,544,567
67749,505,529,512
67752,511,497,489
67757,505,486,467
67761,512,503,480
67765,519,507,518
67769,505,505,531
67773,496,515,527
67777,506,510,510
67781,491,492,505
67785,500,498,490
67789,511,526,500
67793,509,528,510
67798,502,524,519
67802,521,477,491
67806,509,484,494
67810,496,524,515
67814,508,572,550
67818,512,537,527
67822,514,479,486
67826,516,511,523
67830,502,514,511
67834,499,513,508
67838,494,477,486
67843,496,490,483
67847,495,524,506
67851,519,552,515
67855,517,550,511
67859,513,490,478
67863,505,491,498
67867,507,521,525
67871,510,536,515
67875,511,522,556
67879,517,502,540
67884,503,478,484
67888,507,485,485
67892,522,489,493
67896,507,504,492
67900,503,515,496
67904,495,510,501
67907,521,516,523
67910,519,532,530
67913,504,518,500
67917,502,475,481
67921,491,499,508
67926,505,509,523
67930,504,554,549
67934,506,508,513
67938,529,493,505
67942,519,500,506
67946,499,491,498
67950,492,524,495
67954,514,497,488
67958,512,523,525
67962,511,555,558
67966,504,528,529
67971,504,517,505
67975,499,470,481
67979,516,476,471
67983,518,506,517
67987,517,498,509
67991,516,493,500
67995,513,494,510
67999,495,497,526
68003,507,509,528
68007,501,505,508
68012,508,515,511
68016,514,534,523
68020,509,536,516
68024,509,489,501
68028,502,497,502
68032,523,520,521
68036,513,550,525
68040,511,496,481
68044,515,458,467
68048,510,465,482
68052,512,488,509
68057,508,520,537
68061,510,547,544
68065,505,522,473
68069,515,532,494
68072,513,487,502
68075,523,496,521
68078,496,492,506
68082,505,526,513
68086,513,547,530
68090,508,483,495
68094,505,510,497
68099,508,514,503
68103,516,514,497
68107,515,504,482
68111,522,475,483
68115,545,486,509
68119,536,487,525
68123,517,512,542
68127,529,513,535
68131,516,518,519
68135,509,527,515
68140,501,508,501
68144,498,539,508
68148,518,523,497
68152,511,495,506
68156,511,474,495
68160,506,479,523
68164,506,514,522
68168,530,517,513
68172,500,516,503
68176,500,518,519
68180,503,517,528
68185,493,530,513
68189,495,478,480
68193,505,472,490
68197,511,492,502
68201,503,499,527
68205,515,495,521
68209,524,474,486
68213,514,531,503
68217,508,544,522
68221,501,484,507
68226,503,527,511
68230,533,512,509
68233,519,492,499
68236,483,485,495
68239,485,483,502
68243,500,506,519
68247,507,487,505
68251,510,494,499
68255,530,517,499
68259,524,543,511
68263,503,543,528
68268,512,503,513
68272,519,484,510
68276,509,465,499
68280,513,487,500
68284,505,536,536
68288,504,518,511
68292,501,476,487
68296,502,502,502
68300,516,518,509
68304,508,498,479
68308,494,494,504
68313,497,486,504
68317,507,524,500
68321,515,515,497
68325,503,542,499
68329,507,501,511
68333,509,480,518
68337,506,512,512
68341,519,484,502
68345,513,488,513
68349,503,513,523
68354,516,484,514
68358,514,490,504
68362,506,514,506
68366,505,520,515
68370,511,501,510
68374,513,483,494
68378,508,499,501
68382,502,517,510
68386,503,526,531
68390,511,520,525
68393,501,516,482
68397,497,515,484
68400,506,508,509
68403,519,504,521
68407,517,490,495
68411,524,504,513
68415,518,506,519
68419,502,516,491
68423,493,499,485
68427,498,518,513
68431,502,518,524
68435,510,530,517
68440,507,544,517
68444,494,508,515
68448,518,504,494
68452,514,495,506
68456,511,498,512
68460,518,494,498
68464,509,502,503
68468,485,515,504
68472,497,536,508
68476,509,485,507
68481,509,470,503
68485,504,482,494
68489,509,501,510
68493,506,521,507
68497,531,520,497
68501,508,510,497
68505,500,504,495
68509,506,530,507
68513,517,522,525
68517,527,517,543
68521,514,497,509
68526,517,507,508
68530,513,500,502
68534,514,511,503
68538,501,498,499
68542,510,476,495
68546,539,507,491
68550,522,519,500
68554,501,496,510
68557,502,492,521
68560,516,495,506
68563,506,504,520
68568,482,512,514
68572,482,526,515
68576,498,506,508
68580,523,483,500
68584,502,509,522
68588,493,533,528
68592,500,545,487
68596,496,501,493
68600,515,495,505
68604,502,496,503
68609,507,500,519
68613,515,529,527
68617,512,529,502
68621,511,516,522
68625,504,532,530
68629,507,511,508
68633,506,497,495
68637,512,498,513
68641,519,485,495
68645,508,480,480
68649,496,507,497
68654,505,515,488
68658,503,492,498
68662,521,507,527
68666,519,503,528
68670,516,509,508
68674,514,545,530
68678,491,535,554
68682,486,516,528
68686,499,524,493
68690,518,511,489
68695,514,499,502
68699,503,542,536
68703,506,519,499
68707,512,474,495
68711,521,469,495
68715,494,504,513
68719,504,514,513
68722,507,507,511
68725,531,482,501
68729,505,499,504
68733,507,493,513
68738,521,500,505
68742,506,536,537
68746,507,536,516
68750,508,525,491
68754,521,507,499
68758,507,536,523
68762,503,553,529
68766,519,488,501
68770,504,483,499
68774,490,484,472
68779,497,486,465
68783,503,536,509
68787,506,517,521
68791,509,493,532
68795,506,512,555
68799,504,534,555
68803,520,496,504
68807,502,531,535
68811,503,504,507
68815,504,493,479
68819,519,447,437
68824,534,490,494
68828,513,532,538
68832,501,535,523
68836,501,518,488
68840,508,537,493
68844,505,542,553
68848,508,508,544
68852,513,491,529
68856,518,501,527
68860,500,544,555
68865,504,538,528
68869,526,505,495
68873,521,520,506
68877,506,510,499
68881,514,494,488
68884,517,486,504
68887,510,519,534
68890,500,512,515
68894,498,470,496
68898,509,500,522
68902,540,529,505
68907,519,511,483
68911,485,516,503
68915,493,494,495
68919,502,480,495
68923,489,495,506
68927,497,544,514
68931,492,541,518
68935,490,512,524
68939,497,493,511
68943,498,552,556
68947,503,554,529
68952,506,484,492
68956,508,476,486
68960,514,513,502
68964,513,578,538
68968,508,508,501
68972,500,507,503
68976,503,511,543
68980,509,513,533
68984,504,552,527
68988,495,484,466
68993,486,460,470
68997,488,488,504
69001,489,511,497
69005,510,551,528
69009,524,561,546
69013,514,524,529
69017,503,468,491
69021,499,490,512
69025,505,482,502
69029,521,481,506
69033,516,495,495
69038,496,527,489
69042,484,530,488
69045,493,535,521
69048,501,557,521
69051,518,529,524
69054,506,530,553
69058,516,509,526
69062,497,489,496
69066,524,486,494
69070,518,488,513
69074,496,505,503
69079,505,492,486
69083,511,520,515
69087,515,520,522
69091,495,520,519
69095,492,514,511
69099,496,493,478
69103,507,474,473
69107,503,492,478
69111,507,513,498
69115,510,524,509
69120,513,533,506
69124,540,495,469
69128,505,510,530
69132,502,554,561
69136,503,540,546
69140,503,503,500
69144,499,488,501
69148,489,484,506
69152,497,508,496
69156,518,519,516
69160,528,536,534
69165,512,498,509
69169,511,536,531
69173,504,525,526
69177,510,516,494
69181,504,512,473
69185,493,508,508
69189,500,493,510
69193,496,510,503
69197,504,537,507
69201,515,495,505
69204,498,539,505
69208,502,505,488
69211,504,487,456
69214,502,526,533
69218,524,521,541
69222,510,506,515
69226,498,478,494
69230,513,499,497
69234,516,518,511
69238,525,543,504
69242,510,523,502
69246,502,542,532
69251,516,532,515
69255,500,502,475
69259,497,496,512
69263,501,480,521
69267,503,495,513
69271,503,506,514
69275,513,505,501
69279,498,511,502
69283,509,537,500
69287,518,535,501
69292,505,491,514
69296,507,499,506
69300,521,504,503
69304,519,502,525
69308,515,504,504
69312,506,516,503
69316,514,514,472
69320,514,514,464
69324,507,515,516
69328,503,516,525
69332,511,508,509
69337,505,497,517
69341,512,500,497
69345,511,507,528
69349,511,513,505
69353,499,510,486
69357,491,507,512
69361,498,527,541
69365,510,541,536
69368,513,517,485
69371,515,480,480
69374,514,511,505
69379,509,528,499
69383,497,484,491
69387,513,470,484
69391,511,501,482
69395,501,524,506
69399,497,503,502
69403,502,517,525
69407,505,515,537
69411,514,539,541
69415,526,551,529
69420,508,530,512
69424,504,478,504
69428,507,480,514
69432,508,506,506
69436,516,504,481
69440,511,480,487
69444,489,493,506
69448,499,510,517
69452,515,481,487
69456,509,481,462
69460,501,554,530
69465,497,528,541
69469,527,499,517
69473,513,487,507
69477,502,510,525
69481,510,525,526
69485,506,541,518
69489,504,506,498
69493,507,500,488
69497,512,500,464
69501,528,487,473
69506,502,498,494
69510,507,516,502
69514,506,504,494
69518,503,481,484
69522,510,517,537
69526,518,527,551
69530,525,505,522
69533,516,512,507
69536,502,507,489
69540,493,502,488
69544,496,497,504
69549,502,486,500
69553,508,490,501
69557,511,521,527
69561,500,494,512
69565,500,479,484
69569,514,508,516
69573,511,506,520
69577,509,517,506
69581,507,538,530
69585,513,532,537
69590,512,524,517
69594,500,514,513
69598,500,499,483
69602,502,507,465
69606,508,523,509
69610,521,493,529
69614,508,498,511
69618,502,508,505
69622,516,516,497
69626,512,513,525
69630,507,519,524
69635,511,491,511
69639,509,459,511
69643,506,494,501
69647,502,524,501
69651,510,511,510
69655,508,500,521
69659,504,512,519
69663,503,501,517
69667,514,515,510
69671,506,523,497
69676,511,527,512
69680,514,511,511
69684,510,515,519
69688,512,494,500
69692,508,476,493
69695,519,516,501
69698,510,550,513
69701,499,482,509
69705,499,477,513
69709,510,512,534
69713,513,527,524
69718,507,553,557
69722,499,549,532
69726,502,520,492
69730,516,485,464
69734,508,455,498
69738,498,483,505
69742,494,492,522
69746,510,504,510
69750,512,517,486
69754,512,492,492
69758,512,499,500
69763,502,506,501
69767,515,530,543
69771,508,550,536
69775,505,490,487
69779,496,475,488
69783,505,488,504
69787,505,491,503
69791,512,491,486
69795,508,494,504
69799,512,524,527
69804,504,512,501
69808,507,533,527
69812,493,535,521
69816,502,501,503
69820,521,523,508
69824,524,513,498
69828,507,476,483
69832,493,485,494
69836,490,503,505
69840,495,496,511
69844,508,516,519
69849,527,512,523
69853,518,456,470
69856,508,492,503
69859,511,519,535
69862,518,513,505
69865,505,494,507
69869,492,510,517
69873,516,519,505
69877,495,483,491
69881,497,497,503
69885,498,513,528
69890,502,507,508
69894,508,503,493
69898,521,531,522
69902,518,531,524
69906,499,532,525
69910,493,490,494
69914,502,484,494
69918,507,507,478
69922,516,515,480
69926,523,504,516
69931,512,478,484
69935,488,484,495
69939,498,539,553
69943,504,516,487
69947,504,534,500
69951,508,513,512
69955,503,471,509
69959,504,493,530
69963,507,486,514
69967,512,507,496
69971,510,504,490
69976,511,506,508
69980,512,478,498
69984,514,511,506
69988,502,502,525
69992,512,506,518
69996,505,506,502
70000,511,516,489
70004,520,513,510
70008,509,504,513
70012,512,508,510
70017,505,497,502
70020,494,534,522
70023,500,527,520
70026,509,505,497
70030,507,525,498
70034,515,487,478
70038,509,472,490
70042,490,502,512
70046,497,509,506
70050,503,495,508
70054,503,509,509
70059,517,507,503
70063,508,484,500
70067,503,512,518
70071,515,528,510
70075,512,529,497
70079,496,523,507
70083,497,503,515
70087,498,497,520
70091,509,506,511
70095,530,500,511
70099,524,488,495
70104,497,499,510
70108,495,520,511
70112,498,514,495
70116,503,501,495
70120,513,503,504
70124,507,498,500
70128,510,491,503
70132,513,503,496
70136,499,520,497
70140,513,524,525
70145,517,515,526
70149,502,532,562
70153,517,525,495
70157,506,494,481
70161,504,506,513
70165,500,511,514
70169,499,521,537
70173,511,522,530
70177,526,517,502
70180,508,480,506
70183,499,472,498
70187,500,497,509
70191,514,503,508
70195,520,511,500
70199,504,504,506
70203,514,514,512
70207,514,515,509
70211,502,517,498
70215,499,508,504
70219,498,532,540
70223,498,538,551
70227,506,521,532
70232,512,514,516
70236,517,522,495
70240,506,524,515
70244,504,503,501
70248,514,489,505
70252,507,518,512
70256,512,505,510
70260,518,518,532
70264,506,510,498
70268,511,514,496
70273,511,503,505
70277,508,500,503
70281,507,485,496
70285,513,485,504
70289,508,545,556
70293,501,545,526
70297,497,499,487
70301,509,505,499
70305,508,520,522
70309,509,531,520
70313,512,516,514
70318,498,516,521
70322,500,515,511
70326,513,494,503
70330,514,497,509
70334,502,511,504
70338,504,514,501
70342,512,512,520
70345,506,529,521
70348,506,522,499
70351,509,506,474
70355,515,499,509
70360,508,487,515
70364,513,504,514
70368,502,548,525
70372,496,524,526
70376,499,503,514
70380,514,504,509
70384,513,511,509
70388,516,504,525
70392,503,486,496
70396,500,520,517
70401,499,532,552
70405,510,517,533
70409,512,489,499
70413,505,482,501
70417,506,501,498
70421,509,499,497
70425,509,504,517
70429,512,517,489
70433,510,490,499
70437,501,514,536
70441,511,513,521
70446,526,508,518
70450,504,517,515
70454,499,508,510
70458,506,510,509
70462,519,509,509
70466,500,508,510
70470,503,507,522
70474,505,506,514
70478,506,523,524
70482,505,519,498
70487,509,516,493
70491,504,519,517
70495,505,511,519
70499,503,510,506
70503,503,515,512
70506,516,526,519
70509,518,508,503
70512,513,518,519
70516,502,530,542
70520,504,510,485
70524,504,495,481
70529,501,525,522
70533,509,514,503
70537,506,532,527
70541,509,534,530
70545,507,522,534
70549,512,520,519
70553,515,493,484
70557,519,509,508
70561,508,528,532
70565,503,537,558
70569,500,521,540
70574,504,515,477
70578,511,520,478
70582,516,504,498
70586,511,480,487
70590,500,507,550
70594,504,555,586
70598,507,523,501
70602,504,481,455
70606,508,479,476
70610,507,496,503
70615,504,513,491
70619,506,509,485
70623,509,508,483
70627,502,495,474
70631,520,498,499
70635,510,492,499
70639,503,519,495
70643,518,511,527
70647,515,500,499
70651,502,507,491
70656,505,525,532
70660,506,520,532
70664,509,509,510
70667,516,522,524
70670,519,514,529
70673,518,512,514
70676,506,515,515
70680,501,534,526
70684,504,503,504
70688,505,499,512
70692,499,509,499
70696,505,529,495
70701,512,506,480
70705,506,495,480
70709,505,504,500
70713,503,509,507
70717,513,530,532
70721,522,516,528
70725,513,527,552
70729,510,522,522
70733,507,510,496
70737,514,534,522
70742,520,508,510
70746,517,482,495
70750,515,508,491
70754,508,498,481
70758,501,499,496
70762,504,513,483
70766,498,507,481
70770,501,516,525
70774,512,518,540
70778,500,535,561
70782,496,514,533
70787,504,500,507
70791,509,529,490
70795,514,509,485
70799,519,518,531
70803,522,506,503
70807,508,493,474
70811,500,517,517
70815,505,527,517
70819,512,500,478
70823,504,504,482
70828,507,517,528
70831,517,521,518
70834,510,525,522
70837,505,534,521
70841,496,491,511
70845,505,479,505
70849,514,480,505
70853,508,523,510
70857,515,510,496
70861,513,510,504
70865,499,546,534
70870,500,516,513
70874,509,485,491
70878,499,532,546
70882,503,510,518
70886,518,489,483
70890,512,491,481
70894,498,490,486
70898,498,500,504
70902,506,501,511
70906,507,511,499
70910,510,520,501
70915,510,495,501
70919,521,513,519
70923,531,506,507
70927,506,496,492
70931,490,506,512
70935,484,515,546
70939,499,509,508
70943,501,507,497
70947,501,516,515
70951,501,511,509
70956,507,518,504
70960,513,499,490
70964,512,511,523
70968,505,498,529
70972,511,501,515
70976,509,491,490
70980,504,522,495
70984,513,521,542
70988,509,501,505
70991,508,481,488
70994,511,487,518
70998,492,514,539
71002,499,542,534
71006,503,511,494
71010,509,490,460
71014,509,503,513
71018,516,508,525
71022,503,512,524
71026,506,525,515
71030,504,527,512
71034,517,512,525
71038,514,496,527
71043,514,493,484
71047,504,508,503
71051,498,508,525
71055,511,496,503
71059,497,511,496
71063,499,532,490
71067,504,501,495
71071,503,498,507
71075,511,504,504
71079,510,521,521
71084,510,546,524
71088,514,548,533
71092,502,529,522
71096,500,488,479
71100,509,503,487
71104,516,483,503
71108,517,502,529
71112,511,498,494
71116,507,500,495
71120,501,495,511
71124,520,520,560
71129,521,529,527
71133,515,505,479
71137,506,491,491
71141,500,508,503
71145,495,525,519
71149,497,524,518
71153,495,509,495
71156,507,504,515
71159,512,527,532
71162,522,541,535
71166,506,516,567
71171,505,525,560
71175,506,519,527
71179,512,502,505
71183,504,485,474
71187,509,493,470
71191,516,474,465
71195,506,473,471
71199,504,502,506
71203,498,523,503
71207,508,523,495
71212,522,505,472
71216,511,526,493
71220,497,511,506
71224,491,509,531
71228,500,486,522
71232,502,492,503
71236,508,513,526
71240,519,541,565
71244,519,517,538
71248,500,515,510
71252,495,516,509
71257,498,547,576
71261,505,542,556
71265,518,494,461
71269,516,479,450
71273,504,491,489
71277,495,463,492
71281,508,494,512
71285,511,523,510
71289,502,496,493
71293,518,490,494
71298,514,492,506
71302,499,501,496
71306,507,539,511
71310,506,517,542
71314,513,518,542
71317,517,548,534
71320,514,538,536
71323,501,548,532
71327,502,496,523
71331,514,510,515
71335,502,477,460
71340,494,500,495
71344,500,487,502
71348,497,491,492
71352,501,506,497
71356,507,534,526
71360,512,527,518
71364,522,512,525
71368,521,505,518
71372,500,495,496
71376,492,515,502
71380,513,496,492
71385,526,503,489
71389,508,515,521
71393,502,525,553
71397,491,517,547
71401,500,493,499
71405,500,505,519
71409,498,515,492
71413,499,498,502
71417,504,513,504
71421,524,512,496
71426,522,524,520
71430,497,547,527
71434,497,538,510
71438,512,503,508
71442,505,469,489
71446,503,488,501
71450,502,492,521
71454,511,479,494
71458,509,500,491
71462,506,517,502
71467,498,517,514
71471,499,499,529
71475,506,500,522
71478,517,519,525
71481,515,514,516
71484,523,522,515
71487,505,509,494
71491,501,511,517
71495,504,525,507
71499,518,481,502
71503,517,492,505
71507,512,525,520
71512,508,527,540
71516,498,510,514
71520,500,525,508
71524,498,490,524
71528,504,485,492
71532,497,494,486
71536,515,505,505
71540,523,522,534
71544,505,500,515
71548,498,484,496
71553,502,490,492
71557,516,538,523
71561,509,572,544
71565,511,513,488
71569,505,468,430
71573,525,525,496
71577,511,549,563
71581,503,527,517
71585,513,507,509
71589,508,507,515
71593,521,509,517
71598,511,482,499
71602,502,467,487
71606,499,481,495
71610,505,496,515
71614,503,506,498
71618,519,528,487
71622,508,508,501
71626,499,494,504
71630,512,507,509
71634,509,512,510
71639,508,521,517
71642,509,514,519
71645,520,543,536
71648,513,560,519
71652,499,519,468
71656,502,516,490
71660,508,542,515
71664,506,525,525
71668,509,491,542
71672,513,481,486
71676,506,441,421
71681,509,465,479
71685,515,509,536
71689,507,521,545
71693,498,535,524
71697,502,510,501
71701,508,470,504
71705,506,489,513
71709,511,523,509
71713,515,511,510
71717,519,482,488
71721,508,523,530
71726,503,523,539
71730,501,523,515
71734,510,505,500
71738,506,524,506
71742,506,500,485
71746,502,506,491
71750,512,541,501
71754,501,539,522
71758,515,555,547
71762,507,521,522
71767,517,483,480
71771,495,493,496
71775,504,506,523
71779,513,499,505
71783,512,538,505
71787,509,539,511
71791,504,499,539
71795,512,506,522
71799,518,517,502
71803,499,520,505
71806,503,527,529
71810,504,512,523
71814,506,516,499
71818,507,499,483
71822,505,494,516
71826,505,516,523
71830,509,503,496
71834,505,511,512
71838,510,496,515
71842,512,525,480
71846,524,521,495
71851,509,515,523
71855,504,513,522
71859,517,499,508
71863,504,490,503
71867,507,513,522
71871,512,530,522
71875,509,515,502
71879,511,526,510
71883,513,504,510
71887,506,504,515
71891,500,522,515
71896,501,511,504
71900,495,513,520
71904,499,506,518
71908,515,478,498
71912,516,492,498
71916,506,497,505
71920,498,505,503
71924,514,509,497
71928,518,517,508
71932,507,532,504
71937,509,475,506
71941,502,490,525
71945,504,502,525
71949,516,515,524
71953,515,533,527
71957,506,494,501
71961,500,500,497
71965,500,491,507
71968,506,482,506
71971,515,545,525
71974,509,528,511
71979,507,523,524
71983,523,517,523
71987,514,514,509
71991,504,503,496
71995,501,516,508
71999,508,540,511
72003,508,528,486
72007,508,495,489
72011,509,522,541
72015,508,481,508
72019,521,501,508
72024,512,511,526
72028,494,504,522
72032,507,501,489
72036,504,518,491
72040,504,523,508
72044,511,489,503
72048,517,512,512
72052,512,510,496
72056,504,497,496
72060,504,503,511
72065,499,539,530
72069,502,515,517
72073,507,484,492
72077,505,498,527
72081,514,523,527
72085,513,521,519
72089,512,509,503
72093,508,509,502
72097,508,526,513
72101,512,534,516
72105,509,529,506
72110,517,520,496
72114,512,513,486
72118,503,523,512
72122,501,541,524
72126,500,534,527
72129,502,490,520
72132,513,481,483
72135,514,475,478
72138,521,500,493
72142,505,511,525
72146,503,499,522
72151,499,500,507
72155,502,516,510
72159,498,525,476
72163,500,518,505
72167,508,510,530
72171,517,506,517
72175,509,513,501
72179,504,512,497
72183,505,519,513
72187,505,537,523
72192,497,483,505
72196,510,497,491
72200,509,515,479
72204,510,512,513
72208,509,501,493
72212,510,522,513
72216,507,538,558
72220,504,544,546
72224,511,505,494
72228,520,494,478
72232,500,501,498
72237,504,519,499
72241,520,511,496
72245,519,513,514
72249,500,514,506
72253,503,503,477
72257,512,496,496
72261,499,513,510
72265,509,544,551
72269,516,507,516
72273,504,487,501
72278,496,500,509
72282,502,519,515
72286,517,523,514
72289,525,483,514
72292,499,503,510
72295,498,531,509
72298,505,528,513
72302,506,505,492
72306,502,486,488
72310,506,502,503
72314,499,536,536
72318,507,523,539
72323,503,493,484
72327,507,497,473
72331,511,525,486
72335,523,521,522
72339,505,512,518
72343,504,510,513
72347,505,522,534
72351,505,520,536
72355,504,504,503
72359,511,472,492
72364,506,495,516
72368,502,532,518
72372,504,541,515
72376,511,510,513
72380,513,484,510
72384,505,492,503
72388,516,489,498
72392,518,509,508
72396,526,522,516
72400,517,540,545
72404,507,512,518
72409,510,512,513
72413,500,523,511
72417,502,514,481
72421,496,492,461
72425,500,488,501
72429,505,508,531
72433,514,528,526
72437,507,523,525
72441,511,503,494
72445,512,503,494
72450,504,506,524
72453,512,505,509
72456,514,510,506
72459,500,513,519
72463,505,507,506
72467,523,505,506
72471,514,489,506
72475,511,505,512
72479,498,501,514
72483,497,500,493
72487,513,504,482
72492,506,512,521
72496,513,514,533
72500,518,539,547
72504,509,501,500
72508,505,499,488
72512,507,515,515
72516,511,503,512
72520,514,501,511
72524,503,500,519
72528,497,499,515
72532,496,514,511
72537,509,509,504
72541,514,516,506
72545,513,496,510
72549,509,500,519
72553,501,505,519
72557,511,502,504
72561,497,509,502
72565,501,502,510
72569,509,500,511
72573,503,506,512
72578,517,516,521
72582,507,517,512
72586,511,496,481
72590,502,476,481
72594,501,520,521
72598,495,528,518
72602,506,496,504
72606,521,499,498
72610,515,505,494
72614,507,517,486
72617,501,506,506
72621,509,500,517
72625,517,501,514
72629,507,522,517
72633,513,515,516
72637,504,517,517
72641,509,492,506
72645,503,473,497
72649,513,500,497
72653,523,506,506
72657,524,517,506
72662,504,526,518
72666,507,519,510
72670,497,504,508
72674,497,512,519
72678,509,513,512
72682,507,515,515
72686,517,517,495
72690,504,516,509
72694,499,531,548
72698,501,523,517
72702,513,510,499
72707,508,503,506
72711,514,509,527
72715,503,512,501
72719,501,482,489
72723,518,498,493
72727,519,513,526
72731,510,494,507
72735,501,503,530
72739,499,522,520
72743,501,515,494
72748,513,529,502
72752,511,532,522
72756,517,528,529
72760,514,525,497
72764,509,492,482
72768,497,490,519
72772,500,507,536
72776,508,500,503
72779,525,491,512
72782,516,512,514
72785,503,502,506
72790,507,507,506
72794,507,502,526
72798,503,499,508
72802,514,523,499
72806,518,521,496
72810,509,512,491
72814,492,499,464
72818,502,505,490
72822,514,523,510
72826,512,494,503
72830,520,481,521
72835,500,528,550
72839,503,523,527
72843,507,487,487
72847,514,493,492
72851,518,508,515
72855,511,504,528
72859,507,524,512
72863,509,502,492
72867,504,509,496
72871,499,531,492
72876,507,527,493
72880,517,505,504
72884,517,513,506
72888,519,498,493
72892,502,493,510
72896,504,511,514
72900,503,524,497
72904,512,528,539
72908,510,521,548
72912,501,502,508
72916,509,504,518
72921,516,500,509
72925,504,505,489
72929,504,506,488
72933,499,513,511
72937,507,509,514
72940,510,488,488
72943,505,504,505
72946,513,513,501
72949,500,521,507
72953,506,509,539
72957,515,501,523
72962,512,502,498
72966,516,514,498
72970,512,517,505
72974,500,516,527
72978,502,488,516
72982,500,484,510
72986,503,512,511
72990,496,512,497
72994,503,506,508
72998,504,517,526
73003,509,512,516
73007,504,503,498
73011,502,529,516
73015,511,521,493
73019,505,516,500
73023,509,504,513
73027,512,502,492
73031,512,494,498
73035,506,505,506
73039,499,529,529
73043,505,515,510
73048,505,509,504
73052,501,497,513
73056,503,516,507
73060,512,522,487
73064,503,498,486
73068,496,512,511
73072,502,509,518
73076,520,551,535
73080,523,527,511
73084,511,483,488
73089,502,494,508
73093,509,500,511
73097,502,507,511
73101,501,509,512
73104,495,514,512
73107,508,531,525
73110,521,528,536
73114,500,514,521
73118,502,467,487
73122,505,489,487
73126,508,505,491
73131,508,515,503
73135,503,501,494
73139,502,505,501
73143,511,532,510
73147,511,541,535
73151,505,515,537
73155,505,519,528
73159,509,503,509
73163,509,483,500
73167,496,500,506
73171,499,512,511
73176,515,508,499
73180,524,506,496
73184,502,509,495
73188,505,518,498
73192,509,528,501
73196,521,533,510
73200,515,513,517
73204,514,486,509
73208,496,494,493
73212,496,509,505
73217,502,521,519
73221,502,524,504
73225,526,488,481
73229,509,496,501
73233,504,503,510
73237,499,497,478
73241,506,512,504
73245,501,511,529
73249,509,507,520
73253,505,501,506
73257,509,506,511
73262,512,525,515
73265,509,519,519
73268,521,546,523
73271,509,513,506
73275,505,467,493
73279,509,466,478
73283,521,493,493
73287,517,505,501
73291,490,498,503
73295,494,518,502
73299,498,539,501
73304,510,506,505
73308,513,511,509
73312,508,517,524
73316,500,489,490
73320,502,518,495
73324,512,518,513
73328,506,511,510
73332,510,496,528
73336,504,478,516
73340,498,501,525
73345,504,525,536
73349,516,506,509
73353,514,513,494
73357,495,505,493
73361,503,514,498
73365,514,534,513
73369,524,528,526
73373,522,494,492
73377,512,530,496
73381,493,518,497
73385,496,496,502
73390,494,499,497
73394,511,498,497
73398,508,490,487
73402,510,495,516
73406,507,519,525
73410,501,520,520
73414,506,502,530
73418,516,508,518
73422,508,502,500
73426,507,508,504
73430,513,532,529
73433,509,540,536
73436,505,531,511
73440,494,503,485
73444,505,502,491
73448,512,508,502
73452,522,505,502
73456,506,493,496
73460,492,480,490
73464,493,516,512
73468,515,514,520
73473,509,516,519
73477,503,539,511
73481,503,534,521
73485,513,521,518
73489,507,518,515
73493,493,484,493
73497,502,478,480
73501,510,498,501
73505,513,510,522
73509,501,506,530
73513,513,492,503
73518,512,481,498
73522,508,502,503
73526,503,509,494
73530,501,530,506
73534,509,542,525
73538,513,504,519
73542,511,479,493
73546,508,498,517
73550,506,522,526
73554,499,520,530
73559,502,526,521
73563,503,521,526
73567,517,522,523
73571,518,494,503
73575,516,498,492
73579,503,497,485
73583,495,505,498
73587,500,510,506
73590,503,525,519
73593,510,543,530
73596,517,503,503
73601,508,500,495
73605,509,495,492
73609,509,497,501
73613,505,506,509
73617,513,496,509
73621,521,502,515
73625,499,515,527
73629,501,513,529
73633,499,510,516
73637,502,509,513
73641,506,509,507
73646,504,520,503
73650,519,517,502
73654,513,490,496
73658,513,502,511
73662,498,507,505
73666,499,509,497
73670,505,507,507
73674,511,513,510
73678,507,526,522
73682,516,533,517
73687,509,535,524
73691,500,518,520
73695,504,507,516
73699,510,489,503
73703,513,495,511
73707,515,504,520
73711,506,499,511
73715,509,501,499
73719,518,495,506
73723,503,508,514
73728,507,507,494
73732,519,505,489
73736,499,514,497
73740,500,515,507
73744,503,514,507
73748,509,518,523
73751,521,509,512
73754,520,499,493
73757,507,514,515
73760,493,541,533
73764,511,541,529
73768,508,504,504
73773,502,462,481
73777,508,482,503
73781,512,521,528
73785,501,509,512
73789,511,525,513
73793,513,516,503
73797,504,487,496
73801,506,488,492
73805,511,502,509
73809,504,526,522
73814,504,509,501
73818,506,501,496
73822,507,522,502
73826,505,514,505
73830,507,495,503
73834,505,492,508
73838,506,498,504
73842,513,506,501
73846,506,519,509
73850,505,506,519
73854,507,518,528
73859,512,526,527
73863,508,518,537
73867,500,520,536
73871,500,510,504
73875,507,503,495
73879,500,497,496
73883,501,490,492
73887,507,490,496
73891,506,499,512
73895,515,505,501
73900,518,519,513
73904,499,512,514
73908,502,489,498
73912,504,522,519
73915,503,520,511
73918,511,518,496
73921,512,516,494
73925,504,507,524
73929,512,529,557
73933,504,530,538
73937,504,500,520
73942,506,490,505
73946,500,495,499
73950,516,491,492
73954,519,499,492
73958,514,533,536
73962,508,504,523
73966,505,500,511
73970,503,521,508
73974,504,529,507
73978,497,526,496
73982,504,535,491
73987,508,523,533
73991,530,513,528
73995,518,496,500
73999,504,489,497
74003,497,497,493
74007,499,491,509
74011,517,511,528
74015,512,511,517
74019,501,513,506
74023,499,505,497
74028,499,494,495
74032,508,515,517
74036,503,539,519
74040,509,549,518
74044,504,516,518
74048,505,498,498
74052,509,510,497
74056,511,497,497
74060,504,498,494
74064,520,495,505
74068,522,507,528
74073,511,521,534
74076,502,512,515
74079,497,501,502
74082,507,503,498
74086,508,509,495
74090,511,508,500
74094,504,504,500
74098,510,499,500
74102,507,507,510
74106,502,519,522
74110,501,538,524
74115,509,511,509
74119,504,520,504
74123,508,526,499
74127,508,499,512
74131,505,492,516
74135,511,491,501
74139,510,501,496
74143,504,508,512
74147,533,508,513
74151,505,501,511
74156,493,501,502
74160,499,518,508
74164,512,516,504
74168,512,513,507
74172,513,526,507
74176,517,513,498
74180,515,515,496
74184,509,524,529
74188,507,532,542
74192,499,517,535
74196,504,496,512
74201,499,493,504
74205,502,500,501
74209,506,501,499
74213,517,518,508
74217,505,515,501
74221,497,496,487
74225,501,520,514
74229,512,511,508
74233,512,506,503
74237,509,506,502
74241,502,507,512
74244,505,514,499
74247,511,524,513
74251,514,523,528
74255,504,507,516
74259,508,507,511
74263,508,520,529
74267,513,512,507
74271,504,500,494
74275,506,497,495
74279,508,502,498
74284,513,503,490
74288,501,520,504
74292,504,513,518
74296,505,504,519
74300,501,516,522
74304,503,522,509
74308,502,513,507
74312,507,493,503
74316,512,502,522
74320,513,503,515
74324,511,509,516
74329,509,498,503
74333,505,501,523
74337,510,518,529
74341,516,523,500
74345,517,516,495
74349,513,507,492
74353,509,505,490
74357,508,522,508
74361,509,526,516
74365,503,508,505
74370,512,502,493
74374,508,514,506
74378,512,526,540
74382,508,517,531
74386,504,507,505
74390,506,491,496
74394,510,481,486
74398,511,483,480
74401,506,519,535
74404,510,544,567
74407,514,524,519
74412,501,493,497
74416,501,488,497
74420,505,502,501
74424,499,503,495
74428,512,500,497
74432,521,511,506
74436,517,509,508
74440,507,512,499
74444,500,532,525
74448,499,526,520
74452,509,506,505
74457,497,506,505
74461,504,509,507
74465,504,506,506
74469,510,511,505
74473,504,499,504
74477,512,501,514
74481,508,509,517
74485,508,508,497
74489,502,502,493
74493,502,509,506
74498,511,519,508
74502,508,517,497
74506,502,521,502
74510,508,511,503
74514,509,518,515
74518,514,521,521
74522,506,516,515
74526,497,514,500
74530,503,498,491
74534,505,495,495
74539,508,504,503
74543,511,500,510
74547,509,494,511
74551,504,498,510
74555,515,511,514
74559,512,519,514
74562,510,513,504
74565,511,500,488
74568,500,496,497
74571,500,509,520
74575,503,512,526
74579,502,509,512
74584,508,504,507
74588,516,501,517
74592,521,514,512
74596,520,521,512
74600,515,517,503
74604,509,511,506
74608,511,508,504
74612,505,509,508
74616,501,506,500
74620,506,500,500
74625,518,501,503
74629,516,504,509
74633,503,513,515
74637,500,513,509
74641,504,518,510
74645,503,521,510
74649,502,520,511
74653,508,517,508
74657,506,508,501
74661,506,505,501
74665,507,504,500
74670,511,509,504
74674,516,514,505
74678,520,511,506
74682,504,505,502
74686,505,503,498
74690,508,505,501
74694,504,512,502
74698,509,511,503
74702,510,507,507
74706,516,506,505
74711,511,510,505
74715,504,512,505
74719,504,513,504
74723,506,509,505
74726,514,500,506
74729,511,503,507
74732,509,504,505
74736,512,508,502
74740,521,502,503
74744,515,499,505
74748,510,503,504
74753,507,507,500
74757,506,506,501
74761,500,500,502
74765,508,499,504
74769,508,504,503
74773,516,505,503
74777,516,502,501
74781,497,499,504
74785,497,500,506
74789,500,505,503
74793,507,513,500
74798,507,507,499
74802,507,502,502
74806,502,504,502
74810,505,507,503
74814,505,503,503
74818,506,499,501
74822,518,498,499
74826,504,501,494
74830,511,505,496
74834,521,502,501
74839,515,500,500
74843,507,503,501
74847,505,506,501
74851,505,499,509
74855,517,494,510
74859,518,492,506
74863,509,496,507
74867,502,501,508
74871,500,504,509
74875,499,506,507
74880,508,501,504
74884,503,500,508
74888,509,504,509
74891,504,506,505
74894,509,504,503
74898,505,500,503
74902,499,503,503
74906,500,509,506
74910,512,508,508
74914,507,504,503
74918,501,501,498
74923,502,500,502
74927,503,504,508
74931,510,504,504
74935,518,502,499
74939,513,507,507
74943,510,510,508
74947,503,508,498
74951,502,512,504
74955,504,511,512
74959,498,511,513
74963,508,514,512
74968,510,513,508
74972,513,507,512
74976,507,504,515
74980,504,505,514
74984,507,509,512
74988,504,512,511
74992,509,509,512
74996,507,502,512
75000,505,500,513
75004,510,509,511
75009,512,509,500
75013,513,513,510
75017,514,510,519
75021,512,508,522
75025,511,510,518
75029,505,510,516
75033,502,505,513
75037,506,505,515
75041,514,508,517
75045,510,513,517
75049,508,515,516
75053,506,511,512
75056,503,514,510
75059,508,521,510
75063,509,519,515
75067,502,514,515
75071,501,510,516
75075,504,510,518
75079,514,514,518
75083,506,518,518
75087,513,515,515
75091,501,510,515
75096,500,512,511
75100,499,512,511
75104,508,514,511
75108,510,511,511
75112,516,508,509
75116,501,507,511
75120,490,512,520
75124,501,515,522
75128,500,516,517
75132,511,513,515
75137,506,508,510
75141,499,507,510
75145,501,510,513
75149,507,511,510
75153,508,512,512
75157,506,511,512
75161,510,514,513
75165,508,516,513
75169,503,512,508
75173,514,510,508
75177,510,512,511
75182,507,512,506
75186,509,510,499
75190,503,511,509
75194,500,510,513
75198,500,512,513
75202,511,514,512
75206,504,512,513
75210,501,506,510
75213,504,508,507
75216,504,511,510
75219,508,511,509
75223,503,510,507
75227,505,506,507
75231,505,506,507
75235,501,510,508
75239,500,513,510
75243,507,511,506
75247,509,507,505
75251,513,507,505
75255,513,513,505
75259,510,513,508
75264,503,510,504
75268,514,504,502
75272,505,504,505
75276,500,513,507
75280,506,521,514
75284,510,519,515
75288,509,511,515
75292,502,512,514
75296,504,516,514
75300,503,520,515
75304,505,519,515
75309,508,515,515
75313,505,516,514
75317,505,517,511
75321,524,516,508
75325,509,512,503
75329,505,509,513
75333,502,511,512
75337,508,515,512
75341,512,515,513
75345,513,509,513
75350,503,508,513
75354,508,511,511
75358,508,512,511
75362,508,509,513
75366,506,508,510
75370,506,507,510
75373,505,506,514
75376,510,511,515
75379,511,514,514
75382,515,513,515
75386,509,510,511
75390,506,509,506
75395,507,513,506
75399,503,510,511
75403,508,505,511
75407,509,506,511
75411,509,511,512
75415,511,514,512
75419,507,509,510
75423,499,505,514
75427,505,509,513
75431,503,513,511
75436,501,515,511
75440,502,510,512
75444,507,507,513
75448,504,510,513
75452,508,513,511
75456,511,511,509
75460,500,510,511
75464,505,505,509
75468,510,512,511
75472,515,519,514
75476,518,516,513
75481,515,511,509
75485,516,510,506
75489,511,512,509
75493,510,514,514
75497,508,516,515
75501,507,514,513
75505,508,512,514
75509,505,513,516
75513,504,517,513
75517,507,513,512
75522,507,507,512
75526,508,507,511
75530,505,508,509
75534,505,508,507
75537,511,509,507
75540,508,511,508
75543,503,508,508
75547,500,511,509
75551,511,513,508
75555,507,511,506
75559,506,511,507
75564,508,514,510
75568,507,519,510
75572,510,520,507
75576,495,513,509
75580,502,512,511
75584,511,511,509
75588,508,514,510
75592,504,512,511
75596,507,507,508
75600,509,504,506
75604,513,510,508
75609,515,515,507
75613,509,514,505
75617,505,513,512
75621,502,509,513
75625,510,508,510
75629,512,509,506
75633,512,508,506
75637,514,507,507
75641,509,509,510
75645,505,510,513
75650,503,510,513
75654,505,509,512
75658,506,510,509
75662,514,510,509
75666,516,511,509
75670,508,512,510
75674,506,506,513
75678,508,502,515
75682,509,504,515
75686,502,510,514
75691,505,508,515
75695,507,502,513
75699,505,505,513
75702,512,510,513
75705,513,512,513
75709,511,509,508
75713,509,508,509
75717,505,504,508
75721,509,506,509
75725,504,509,507
75729,507,508,504
75734,508,504,503
75738,510,504,504
75742,506,510,506
75746,503,513,507
75750,506,507,509
75754,505,502,506
75758,505,501,509
75762,508,500,512
75766,506,504,511
75770,510,507,510
75774,510,506,511
75779,501,508,511
75783,506,513,512
75787,516,513,509
75791,514,507,507
75795,510,503,510
75799,506,506,513
75803,508,510,513
75807,505,512,516
75811,508,510,512
75815,505,508,509
75820,503,509,509
75824,506,513,510
75828,506,513,509
75832,502,514,508
75836,502,511,507
75840,503,509,509
75844,506,512,510
75848,509,514,508
75852,511,510,508
75856,509,509,509
75860,503,510,509
75864,509,513,514
75867,503,513,514
75870,506,508,511
75874,508,510,514
75878,508,515,514
75882,510,517,513
75886,513,515,513
75890,505,511,510
75894,503,510,511
75898,508,512,514
75902,504,513,513
75907,499,509,511
75911,499,505,507
75915,503,507,506
75919,508,512,508
75923,507,515,512
75927,507,512,510
75931,505,507,510
75935,508,506,509
75939,509,509,510
75943,504,513,509
75948,505,514,507
75952,505,507,512
75956,510,507,515
75960,515,510,513
75964,508,511,511
75968,502,512,510
75972,499,508,509
75976,503,509,509
75980,512,513,509
75984,512,513,511
75988,506,509,509
75993,500,507,507
75997,503,510,507
76001,507,513,506
76005,510,510,504
76009,513,506,504
76013,507,505,504
76017,505,505,506
76021,507,509,508
76024,508,510,507
76027,506,508,506
76030,507,505,506
76034,506,507,506
76038,506,512,507
76042,508,510,508
76046,513,507,509
76050,507,505,509
76054,505,505,509
76058,509,510,508
76062,510,510,509
76066,510,507,510
76070,502,506,512
76075,500,505,509
76079,505,508,509
76083,515,507,506
76087,513,506,508
76091,514,509,513
76095,509,513,512
76099,498,516,510
76103,501,509,509
76107,510,506,509
76111,509,510,510
76115,509,513,512
76120,503,511,511
76124,506,509,507
76128,503,510,507
76132,514,514,510
76136,501,514,508
76140,506,510,511
76144,508,507,511
76148,505,505,509
76152,498,507,510
76156,507,508,510
76161,517,507,509
76165,511,505,509
76169,505,506,511
76173,501,507,512
76177,508,509,509
76181,512,509,511
76185,514,504,511
76188,509,501,510
76191,506,504,510
76194,506,509,511
76198,522,511,511
76203,506,507,510
76207,506,505,510
76211,496,512,511
76215,501,514,512
76219,508,507,508
76223,507,502,508
76227,510,505,509
76231,505,510,508
76235,508,514,510
76239,514,512,511
76243,509,506,513
76248,515,507,512
76252,509,512,513
76256,510,511,514
76260,510,504,513
76264,502,500,512
76268,502,501,511
76272,511,507,511
76276,508,510,511
76280,505,510,511
76284,501,506,511
76289,508,505,511
76293,508,508,513
76297,507,507,512
76301,507,505,515
76305,507,504,515
76309,510,502,511
76313,513,505,509
76317,515,509,505
76321,505,508,507
76325,501,504,508
76329,504,504,507
76334,505,507,505
76338,508,505,505
76342,514,502,504
76346,509,506,507
76349,505,513,508
76352,509,516,511
76355,506,512,513
76359,509,510,513
76363,504,511,513
76367,503,514,512
76371,512,515,512
76376,514,513,511
76380,508,510,509
76384,509,514,509
76388,503,520,510
76392,509,520,512
76396,498,515,512
76400,498,514,512
76404,507,519,512
76408,513,521,511
76412,514,514,510
76417,513,508,509
76421,513,508,511
76425,513,509,513
76429,512,509,510
76433,517,511,510
76437,514,509,510
76441,506,510,510
76445,506,509,511
76449,507,511,512
76453,509,510,511
76457,514,508,512
76462,506,510,512
76466,501,511,509
76470,501,511,510
76474,508,507,510
76478,512,506,510
76482,505,507,510
76486,505,508,513
76490,514,507,509
76494,512,507,508
76498,514,505,510
76503,505,505,512
76507,502,506,511
76511,507,510,509
76514,514,508,505
76517,510,505,510
76520,506,507,512
76524,508,510,511
76528,505,510,509
76532,505,508,508
76536,503,507,509
76540,500,508,511
76545,505,512,512
76549,513,511,511
76553,507,509,510
76557,508,508,510
76561,508,510,511
76565,510,515,513
76569,510,512,513
76573,508,503,511
76577,502,503,512
76581,505,507,513
76585,510,510,512
76590,508,511,512
76594,509,504,509
76598,505,500,511
76602,511,504,511
76606,508,511,511
76610,504,512,508
76614,513,508,509
76618,503,509,509
76622,499,513,509
76626,504,513,509
76631,504,511,509
76635,508,507,510
76639,504,509,512
76643,500,512,511
76647,504,512,512
76651,509,509,512
76655,511,507,511
76659,508,509,511
76663,518,512,508
76667,506,512,502
76672,505,507,500
76675,505,504,506
76678,504,506,507
76681,507,510,509
76685,506,513,511
76689,505,510,506
76693,508,506,505
76697,506,505,507
76701,506,509,507
76705,514,509,505
76709,514,507,505
76713,508,504,505
76718,511,504,507
76722,506,510,506
76726,507,513,507
76730,512,510,508
76734,505,511,510
76738,510,515,511
76742,515,512,509
76746,511,509,508
76750,509,506,508
76754,511,504,508
76759,505,506,510
76763,505,508,510
76767,505,508,509
76771,509,508,509
76775,510,511,508
76779,510,516,507
76783,509,514,509
76787,508,508,508
76791,510,506,511
76795,505,506,507
76800,505,509,504
76804,507,513,503
76808,510,512,505
76812,506,508,508
76816,508,506,509
76820,505,510,507
76824,510,510,503
76828,512,508,503
76832,509,509,510
76835,504,509,512
76838,507,512,511
76841,509,513,509
76845,508,507,508
76849,510,504,509
76853,508,506,509
76857,514,508,510
76861,511,510,508
76865,504,508,508
76869,501,505,506
76873,506,508,505
76877,507,512,506
76881,508,511,505
76886,505,506,507
76890,506,506,508
76894,505,508,510
76898,505,511,510
76902,498,513,506
76906,498,511,508
76910,502,508,516
76914,504,506,513
76918,507,509,509
76922,511,509,509
76926,511,510,509
76931,506,512,509
76935,503,514,510
76939,503,513,509
76943,513,510,507
76947,511,510,507
76951,498,513,508
76955,501,514,508
76959,509,512,513
76963,507,506,507
76967,499,507,504
76972,504,510,504
76976,505,512,504
76980,506,509,505
76984,502,504,504
76988,498,498,506
76992,505,499,508
76996,516,507,509
76999,509,509,507
77002,506,506,505
77005,503,503,508
77009,508,505,508
77014,505,509,508
77018,505,510,506
77022,510,506,506
77026,504,509,509
77030,514,514,510
77034,514,515,513
77038,517,507,509
77042,508,505,506
77046,503,505,507
77050,504,510,506
77054,505,510,505
77059,506,503,502
77063,510,502,506
77067,507,505,509
77071,508,506,508
77075,508,506,505
77079,516,505,505
77083,508,505,507
77087,503,507,510
77091,503,509,508
77095,504,506,505
77100,508,503,504
77104,508,505,508
77108,507,506,511
77112,510,507,513
77116,511,505,513
77120,514,502,510
77124,504,502,510
77128,508,504,508
77132,509,505,509
77136,509,504,507
77140,514,503,506
77145,515,504,507
77149,506,508,509
77153,507,511,510
77157,509,508,509
77160,505,504,508
77163,504,505,510
77166,504,507,510
77170,514,509,510
77174,512,508,510
77178,510,509,510
77182,509,510,510
77187,509,511,510
77191,513,511,511
77195,510,512,514
77199,509,508,512
77203,508,508,508
77207,514,509,508
77211,512,512,509
77215,510,512,509
77219,511,514,510
77223,508,515,513
77228,504,514,512
77232,509,515,510
77236,505,510,509
77240,503,509,511
77244,508,511,509
77248,509,514,509
77252,513,515,509
77256,513,511,510
77260,510,509,509
77264,504,515,507
77268,503,517,510
77273,514,510,511
77277,516,502,512
77281,507,502,512
77285,510,507,512
77289,511,511,512
77293,512,508,509
77297,502,506,510
77301,499,508,509
77305,506,513,508
77309,505,512,510
77314,507,511,510
77318,505,508,510
77322,509,506,510
77325,504,508,509
77328,508,508,508
77331,512,505,508
77335,511,504,508
77339,515,506,507
77343,512,511,504
77347,514,510,504
77351,514,505,506
77356,507,504,510
77360,507,504,509
77364,511,508,509
77368,506,510,509
77372,505,509,507
77376,512,508,507
77380,509,508,506
77384,511,508,505
77388,511,508,505
77392,506,508,503
77396,505,510,505
77401,509,512,507
77405,504,510,510
77409,503,507,509
77413,507,501,508
77417,510,503,507
77421,507,509,506
77425,513,510,506
77429,504,508,506
77433,504,506,505
77437,510,508,506
77442,514,512,507
77446,516,517,511
77450,509,511,507
77454,503,504,505
77458,507,505,507
77462,510,509,509
77466,518,514,508
77470,509,515,508
77474,508,515,508
77478,502,512,505
77483,499,516,507
77486,503,513,503
77489,505,510,502
77492,505,511,502
77496,510,511,501
77500,509,514,506
77504,508,516,507
77508,504,516,509
77512,503,514,507
77516,502,515,507
77520,507,516,506
77524,517,512,507
77529,522,510,509
77533,508,512,509
77537,508,515,507
77541,512,517,505
77545,510,513,507
77549,508,507,508
77553,512,506,510
77557,513,509,511
77561,505,513,509
77565,504,509,509
77570,504,509,507
77574,509,508,505
77578,510,509,506
77582,512,510,508
77586,511,508,509
77590,508,503,510
77594,505,506,512
77598,513,511,511
77602,509,515,511
77606,508,511,511
77611,509,511,511
77615,507,512,511
77619,513,512,511
77623,514,509,509
77627,511,506,508
77631,504,502,508
77635,504,502,509
77639,509,508,508
77643,508,512,506
77646,512,508,499
77649,506,501,502
77652,506,503,505
77656,505,508,505
77660,508,508,505
77664,508,507,503
77668,510,509,504
77672,508,516,507
77676,513,520,507
77680,508,516,507
77684,506,511,508
77688,506,511,507
77692,514,514,506
77697,522,517,505
77701,510,515,507
77705,502,511,509
77709,503,509,506
77713,503,510,506
77717,502,512,506
77721,511,508,505
77725,514,507,504
77729,503,510,504
77733,501,512,505
77737,508,517,507
77742,510,517,505
77746,509,515,507
77750,503,516,509
77754,497,518,508
77758,505,515,504
77762,513,509,502
77766,510,507,506
77770,503,515,509
77774,504,518,508
77778,508,512,508
77783,514,507,509
77787,506,506,508
77791,503,509,510
77795,502,512,511
77799,506,511,509
77803,516,509,508
77807,503,509,505
77810,504,514,507
77813,507,517,511
77816,508,510,512
77820,505,504,510
77825,506,508,511
77829,512,509,512
77833,510,509,515
77837,509,508,514
77841,508,507,514
77845,504,508,515
77849,499,509,514
77853,502,511,512
77857,510,512,512
77861,509,507,511
77865,504,507,511
77870,513,511,511
77874,508,509,512
77878,508,506,510
77882,512,506,510
77886,509,510,508
77890,503,515,511
77894,507,516,513
77898,512,511,509
77902,510,507,509
77906,504,508,509
77911,509,509,509
77915,506,506,506
77919,503,503,504
77923,503,502,504
77927,505,506,507
77931,501,511,509
77935,504,510,505
77939,509,505,505
77943,504,507,506
77947,498,511,507
77952,501,512,508
77956,509,513,504
77960,510,508,507
77964,504,505,510
77968,510,508,511
77972,505,512,509
77975,508,512,512
77978,511,504,513
77982,505,503,514
77986,504,508,514
77990,507,512,515
77995,513,511,514
77999,510,504,510
78003,502,504,509
78007,509,510,510
78011,515,512,508
78015,509,508,508
78019,496,509,510
78023,500,512,512
78027,507,513,512
78031,508,512,510
78035,510,509,511
78040,504,506,512
78044,506,507,512
78048,505,510,509
78052,505,509,507
78056,508,509,508
78060,511,510,509
78064,508,509,514
78068,508,513,515
78072,513,511,512
78076,502,509,513
78081,501,507,511
78085,505,511,510
78089,502,512,509
78093,507,512,509
78097,505,511,508
78101,508,516,511
78105,509,517,512
78109,508,513,511
78113,512,511,507
78117,521,507,507
78121,511,506,509
78126,504,511,509
78130,508,515,506
78134,507,514,506
78137,511,510,508
78140,512,509,508
78143,513,511,505
78147,513,511,502
78151,505,506,504
78155,508,504,504
78159,509,505,505
78163,504,509,509
78168,509,510,507
78172,509,509,505
78176,508,507,504
78180,507,509,505
78184,508,513,503
78188,507,512,505
78192,507,509,505
78196,510,506,503
78200,508,508,502
78204,506,513,504
78209,508,513,506
78213,514,511,513
78217,512,509,512
78221,506,511,510
78225,506,514,508
78229,508,513,508
78233,510,509,508
78237,511,506,509
78241,510,511,510
78245,508,514,509
78249,516,511,508
78254,507,507,508
78258,506,505,507
78262,504,509,509
78266,505,511,511
78270,504,505,507
78274,516,504,507
78278,504,508,508
78282,504,513,510
78286,505,511,510
78290,503,504,508
78295,501,504,509
78298,505,507,508
78301,504,511,507
78304,505,512,508
78307,509,509,513
78311,503,505,512
78315,501,508,512
78319,511,514,512
78323,515,513,511
78327,513,507,509
78331,505,510,511
78336,502,512,512
78340,503,513,512
78344,511,510,511
78348,507,509,510
78352,501,511,513
78356,506,513,515
78360,506,511,511
78364,504,509,511
78368,508,506,513
78372,513,503,514
78376,510,510,513
78381,505,515,513
78385,510,510,515
78389,511,505,516
78393,510,505,514
78397,511,511,516
78401,516,514,515
78405,513,509,513
78409,504,505,511
78413,497,502,511
78417,501,502,512
78422,507,504,514
78426,514,505,513
78430,506,508,513
78434,502,508,512
78438,507,510,514
78442,510,510,511
78446,510,506,511
78450,511,505,511
78454,503,510,511
78457,503,514,510
78460,513,513,510
78464,510,508,510
78467,504,505,509
78471,504,509,513
78475,512,512,515
78479,504,510,513
78483,503,505,512
78487,510,505,510
78491,513,510,509
78495,507,514,509
78499,510,511,508
78503,506,504,509
78508,508,499,510
78512,507,504,510
78516,504,506,510
78520,500,505,509
78524,497,506,508
78528,501,509,509
78532,509,511,511
78536,507,509,508
78540,512,507,506
78544,513,506,508
78548,508,507,507
78553,505,508,505
78557,510,507,505
78561,505,503,503
78565,507,502,503
78569,508,508,504
78573,505,513,504
78577,513,510,505
78581,514,510,505
78585,502,506,506
78589,507,506,505
78594,510,510,503
78598,502,512,504
78602,507,509,504
78606,504,505,504
78610,507,507,504
78614,515,512,506
78618,510,512,505
78621,508,508,505
78624,505,505,504
78627,506,506,505
78631,507,510,507
78636,509,507,506
78640,500,503,506
78644,501,507,506
78648,501,512,503
78652,501,511,507
78656,508,507,513
78660,505,501,511
78664,511,501,509
78668,512,502,509
78672,509,504,507
78676,512,503,507
78681,508,503,509
78685,502,506,510
78689,504,511,512
78693,507,513,511
78697,507,510,508
78701,505,506,508
78705,507,508,508
78709,501,512,509
78713,501,516,510
78717,513,513,507
78722,509,508,504
78726,504,508,504
78730,506,512,509
78734,508,514,507
78738,502,513,509
78742,498,507,508
78746,506,506,506
78750,509,511,506
78754,503,514,505
78758,507,506,506
78763,509,502,505
78767,501,508,506
78771,501,512,506
78775,508,510,505
78779,505,510,505
78783,501,507,506
78786,505,508,509
78789,505,510,508
78793,512,508,506
78797,507,507,506
78801,501,508,506
78806,500,511,503
78810,505,514,506
78814,505,513,510
78818,506,506,510
78822,501,507,509
78826,505,513,505
78830,507,507,504
78834,513,503,503
78838,508,502,504
78842,503,507,509
78846,507,507,512
78851,511,506,512
78855,507,504,511
78859,508,503,509
78863,508,503,508
78867,504,508,507
78871,508,511,505
78875,512,505,504
78879,509,501,506
78883,512,506,507
78887,514,513,508
78892,508,511,506
78896,499,508,506
78900,507,505,507
78904,511,505,505
78908,504,509,504
78912,502,512,508
78916,509,506,510
78920,503,506,511
78924,507,511,508
78928,508,515,509
78932,510,515,508
78937,513,508,506
78941,507,508,509
78945,511,512,511
78948,509,513,511
78951,510,511,510
78954,512,511,512
78958,518,509,511
78962,510,509,510
78966,508,513,509
78970,507,513,508
78974,507,509,507
78979,503,505,510
78983,506,505,511
78987,510,508,512
78991,513,506,511
78995,506,504,512
78999,501,507,512
79003,508,511,512
79007,515,512,512
79011,516,510,510
79015,505,510,505
79020,501,515,503
79024,506,518,499
79028,512,513,499
79032,506,507,497
79036,502,506,493
79040,513,509,499
79044,504,517,504
79048,504,515,503
79052,505,508,501
79056,507,506,499
79060,513,509,496
79065,508,510,494
79069,511,507,496
79073,511,503,500
79077,508,504,499
79081,508,509,500
79085,509,509,503
79089,504,503,504
79093,502,500,505
79097,498,505,505
79101,498,511,505
79106,500,509,503
79109,502,506,504
79112,510,506,504
79115,508,506,502
79118,509,508,503
79122,509,512,503
79126,510,509,505
79130,519,506,506
79134,512,506,510
79138,508,506,507
79142,509,505,502
79147,512,504,498
79151,509,508,500
79155,504,518,503
79159,512,517,504
79163,508,511,505
79167,509,508,504
79171,509,508,507
79175,514,508,507
79179,507,511,509
79183,506,510,510
79187,506,506,509
79192,507,505,507
79196,509,513,506
79200,508,517,506
79204,505,513,508
79208,509,509,510
79212,505,506,510
79216,512,506,515
79220,504,508,516
79224,506,506,516
79228,509,506,515
79233,513,510,518
79237,506,514,513
79241,510,511,508
79245,514,507,510
79249,512,504,514
79253,512,506,515
79257,507,510,514
79261,508,510,514
79265,508,508,512
79269,512,506,512
79272,512,509,512
79276,500,514,513
79279,507,513,514
79283,506,511,515
79287,506,507,511
79291,510,508,510
79295,510,511,511
79299,512,510,513
79303,509,508,514
79307,507,508,513
79311,510,512,513
79315,501,518,514
79320,504,513,508
79324,505,510,506
79328,505,509,512
79332,507,512,515
79336,515,514,514
79340,512,515,513
79344,505,510,512
79348,500,506,512
79352,504,507,512
79356,510,515,511
79361,509,512,511
79365,505,508,513
79369,504,506,513
79373,505,509,513
79377,505,510,512
79381,512,508,510
79385,511,507,508
79389,507,509,509
79393,507,513,511
79397,510,518,510
79401,512,516,512
79406,507,511,512
79410,512,512,512
79414,517,516,511
79418,510,514,512
79422,508,512,512
79426,508,510,514
79430,507,512,517
79433,512,511,514
79436,507,507,510
79439,501,504,509
79443,505,505,511
79448,513,508,511
79452,514,507,511
79456,509,504,509
79460,511,501,510
79464,509,503,511
79468,508,506,510
79472,508,508,509
79476,509,508,509
79480,509,505,508
79484,507,504,507
79489,510,507,506
79493,505,511,506
79497,503,511,506
79501,502,509,504
79505,504,509,508
79509,504,512,513
79513,509,509,514
79517,504,502,512
79521,499,503,512
79525,510,507,514
79529,507,514,514
79534,510,513,516
79538,505,507,507
79542,504,509,505
79546,513,511,510
79550,511,512,512
79554,509,509,511
79558,510,503,509
79562,504,503,508
79566,506,509,509
79570,505,514,509
79575,508,512,510
79579,513,506,507
79583,506,506,507
79587,508,510,510
79591,515,509,511
79595,506,506,510
79598,509,505,510
79601,504,505,512
79604,504,509,514
79608,499,510,515
79612,506,507,513
79617,503,505,511
79621,505,506,510
79625,507,510,510
79629,512,513,508
79633,508,510,508
79637,508,508,508
79641,503,509,511
79645,504,513,510
79649,510,512,507
79653,507,510,503
79657,515,510,504
79662,515,512,507
79666,510,512,509
79670,503,512,508
79674,499,510,506
79678,505,511,507
79682,506,514,506
79686,509,513,507
79690,507,514,511
79694,505,512,511
79698,506,511,510
79703,514,510,508
79707,518,511,511
79711,508,508,510
79715,503,507,509
79719,507,508,511
79723,509,509,512
79727,514,511,509
79731,511,509,508
79735,508,506,507
79739,502,505,508
79744,506,508,511
79748,507,506,507
79752,508,507,508
79756,505,508,509
79759,504,510,512
79762,510,511,511
79765,512,513,511
79769,512,513,511
79773,513,510,510
79777,507,506,511
79781,512,508,514
79785,511,510,513
79790,508,507,511
79794,505,506,512
79798,512,509,512
79802,509,514,512
79806,507,517,513
79810,509,509,513
79814,505,506,515
79818,502,506,515
79822,498,508,512
79826,509,509,512
79831,506,508,515
79835,498,510,512
79839,507,509,511
79843,503,513,513
79847,512,512,510
79851,512,511,508
79855,505,512,510
79859,515,514,511
79863,513,516,511
79867,513,510,511
79872,508,506,511
79876,505,510,510
79880,503,513,510
79884,507,512,508
79888,504,509,508
79892,510,505,508
79896,508,505,505
79900,509,507,509
79904,510,511,509
79908,508,511,509
79912,500,507,505
79917,505,507,506
79920,507,507,513
79923,512,508,516
79926,505,506,515
79929,504,505,515
79933,512,507,514
79937,511,509,510
79941,504,507,511
79945,508,504,510
79949,504,506,511
79953,508,509,504
79958,507,512,500
79962,501,509,506
79966,502,505,507
79970,507,502,515
79974,506,508,515
79978,508,511,513
79982,505,510,509
79986,505,505,508
79990,507,503,511
79994,510,508,516
79998,508,508,511
80003,512,509,508
80007,512,505,511
80011,509,503,505
80015,505,507,508
80019,509,514,510
80023,512,512,513
80027,507,504,517
80031,514,505,514
80035,504,510,511
80039,507,510,511
80044,506,507,508
80048,504,504,508
80052,503,505,508
80056,511,509,507
80060,515,511,507
80064,512,512,509
80068,509,509,509
80072,511,511,512
80076,508,512,512
80080,498,510,512
80083,509,507,510
80087,515,511,510
80090,497,513,507
80094,506,514,508
80098,515,510,509
80102,508,508,506
80106,492,503,505
80110,512,505,509
80114,515,510,511
80118,514,506,505
80122,514,500,499
80126,510,504,510
80131,508,510,514
80135,509,515,511
80139,514,510,503
80143,519,506,493
80147,512,513,505
80151,512,518,517
80155,506,519,516
80159,518,513,511
80163,513,511,511
80167,508,511,512
80172,505,511,508
80176,516,513,506
80180,511,513,510
80184,513,513,510
80188,515,513,507
80192,510,515,509
80196,512,514,509
80200,512,516,507
80204,518,517,505
80208,516,515,506
80212,512,513,502
80217,517,515,495
80221,506,511,503
80225,504,508,512
80229,511,511,512
80233,512,513,508
80237,512,513,508
80241,505,511,505
80244,506,511,505
80247,510,515,505
80250,514,518,504
80254,512,511,503
80259,502,506,504
80263,506,507,504
80267,508,511,501
80271,510,513,499
80275,504,513,504
80279,504,512,504
80283,511,505,494
80287,510,512,502
80291,503,520,522
80295,503,514,516
80300,508,504,513
80304,511,511,517
80308,509,517,512
80312,509,518,509
80316,518,512,513
80320,512,503,515
80324,503,501,513
80328,506,502,506
80332,508,505,503
80336,502,508,502
80340,502,506,504
80345,508,508,505
80349,506,513,508
80353,505,504,505
80357,502,505,508
80361,504,511,512
80365,509,509,510
80369,508,512,506
80373,507,515,502
80377,506,509,507
80381,505,498,508
80386,507,507,509
80390,516,516,510
80394,511,507,510
80398,508,503,510
80402,502,498,496
80406,504,498,504
80409,504,502,520
80412,510,501,518
80415,509,498,510
80419,516,505,513
80423,516,507,510
80428,509,504,501
80432,501,511,503
80436,502,513,506
80440,504,506,513
80444,507,504,514
80448,508,509,512
80452,505,515,510
80456,501,518,501
80460,502,504,507
80464,509,505,508
80468,504,507,504
80473,507,500,497
80477,505,500,498
80481,504,515,519
80485,504,518,509
80489,511,509,491
80493,512,518,505
80497,509,509,530
80501,506,519,518
80505,500,516,498
80509,505,500,486
80514,504,499,522
80518,509,501,524
80522,507,511,500
80526,509,515,512
80530,506,498,514
80534,501,494,508
80538,505,498,491
80542,510,497,490
80546,510,518,545
80550,507,512,515
80555,502,505,469
80559,498,504,488
80563,499,509,543
80567,500,527,568
80570,502,523,547
80573,511,511,498
80576,511,511,511
80580,510,525,535
80584,501,538,549
80588,504,503,533
80592,502,494,524
80596,509,476,496
80601,509,483,519
80605,508,513,546
80609,506,530,551
80613,506,494,539
80617,507,492,528
80621,509,507,553
80625,516,526,583
80629,524,520,576
80633,513,498,549
80637,504,481,514
80642,500,483,498
80646,506,491,544
80650,512,495,537
80654,512,500,554
80658,508,508,555
80662,516,520,556
80666,513,507,544
80670,503,504,544
80674,499,475,528
80678,502,472,528
80683,505,507,543
80687,488,522,567
80691,504,499,546
80695,522,511,576
80699,508,477,547
80703,501,456,522
80707,498,518,576
80711,504,549,588
80715,508,528,576
80719,504,473,540
80723,508,494,524
80728,523,488,531
80731,507,477,539
80734,521,485,531
80737,534,507,527
80740,507,518,534
80744,503,518,542
80748,513,514,529
80752,514,471,496
80756,509,505,501
80760,520,519,528
80764,520,509,545
80769,507,525,557
80773,481,462,539
80777,490,461,508
80781,513,489,519
80785,518,500,520
80789,506,486,528
80793,510,521,536
80797,505,510,521
80801,506,522,511
80805,520,545,517
80809,513,531,564
80814,503,523,559
80818,518,487,521
80822,530,505,533
80826,520,485,492
80830,516,518,501
80834,524,513,513
80838,517,540,560
80842,510,590,573
80846,520,542,512
80850,521,483,449
80855,518,444,418
80859,519,475,475
80863,522,494,531
80867,492,505,497
80871,487,524,494
80875,499,519,497
80879,504,536,504
80883,521,501,499
80887,513,497,510
80891,508,513,531
80894,509,522,511
80898,491,526,498
80901,501,534,523
80905,515,573,511
80909,536,556,512
80913,554,535,517
80917,514,479,458
80921,513,501,458
80925,505,506,513
80929,523,563,553
80933,537,551,479
80937,533,508,452
80942,510,474,447
80946,536,469,446
80950,505,475,469
80954,539,478,493
80958,504,533,523
80962,512,519,485
80966,520,500,443
80970,516,514,451
80974,487,489,475
80978,486,517,517
80983,525,530,551
80987,498,505,491
80991,495,544,485
80995,490,543,514
80999,526,578,575
81003,539,573,596
81007,523,535,504
81011,508,476,414
81015,514,504,427
81019,505,475,426
81024,530,499,454
81028,521,520,475
81032,536,518,477
81036,503,541,509
81040,521,559,522
81044,537,513,469
81048,490,467,442
81052,495,497,475
81056,504,512,475
81059,500,561,522
81062,489,545,528
81067,503,505,516
81071,535,497,482
81075,524,530,486
81079,508,543,502
81083,490,528,485
81087,530,508,472
81091,505,545,539
81095,503,558,550
81099,501,485,466
81103,499,479,446
81107,539,523,465
81112,532,544,497
81116,499,520,487
81120,482,541,501
81124,487,533,477
81128,533,510,483
81132,528,525,506
81136,511,537,499
81140,514,506,487
81144,523,498,480
81148,505,512,482
81153,467,525,522
81157,516,547,525
81161,514,511,482
81165,490,473,491
81169,480,489,495
81173,509,483,481
81177,515,506,519
81181,518,524,536
81185,521,574,538
81189,515,516,494
81193,518,511,505
81198,476,514,481
81202,490,511,483
81206,492,494,460
81210,502,464,422
81214,488,485,471
81218,516,536,500
81221,505,527,529
81224,501,526,542
81227,522,512,519
81231,530,536,540
81235,493,573,558
81240,494,508,491
81244,501,485,489
81248,506,530,488
81252,486,509,481
81256,535,493,489
81260,516,491,468
81264,494,509,466
81268,498,547,493
81272,497,580,527
81276,476,544,533
81281,489,466,472
81285,517,466,469
81289,502,471,480
81293,503,521,504
81297,500,528,524
81301,517,533,525
81305,517,540,495
81309,495,505,482
81313,505,498,491
81317,520,517,528
81321,518,556,567
81326,486,541,509
81330,490,496,478
81334,509,486,444
81338,499,492,466
81342,507,475,486
81346,486,484,492
81350,491,496,495
81354,500,521,496
81358,485,547,508
81362,495,519,532
81367,496,515,542
81371,498,534,529
81375,522,493,511
81379,540,475,469
81382,520,484,464
81385,493,509,486
81388,498,549,538
81391,515,541,538
81395,505,495,496
81399,495,488,469
81403,505,487,475
81408,488,535,501
81412,492,537,492
81416,504,497,481
81420,527,477,482
81424,515,499,503
81428,490,510,518
81432,486,506,531
81436,491,494,508
81440,523,504,493
81444,492,499,491
81448,479,535,518
81453,489,549,540
81457,504,518,517
81461,507,497,490
81465,499,503,491
81469,503,512,499
81473,524,509,502
81477,527,513,519
81481,493,502,497
81485,482,489,486
81489,486,507,496
81494,509,497,485
81498,502,492,489
81502,532,523,517
81506,530,537,519
81510,482,511,518
81514,490,538,550
81518,512,525,525
81522,495,512,530
81526,501,551,538
81530,473,507,484
81534,488,482,481
81539,519,487,490
81542,511,488,464
81545,504,509,476
81548,490,501,511
81551,486,522,554
81555,521,524,536
81559,529,531,508
81563,518,498,467
81567,490,482,468
81571,499,483,536
81575,503,591,682
81580,500,569,581
81584,518,470,439
81588,512,449,418
81592,523,497,448
81596,513,492,474
81600,524,508,509
81604,503,536,553
81608,494,493,500
81612,506,489,483
81616,498,494,465
81620,507,483,491
81625,499,488,496
81629,517,492,496
81633,502,484,495
81637,498,492,486
81641,501,512,494
81645,519,524,500
81649,510,501,503
81653,525,510,529
81657,514,536,543
81661,506,538,549
81666,498,546,548
81670,491,485,480
81674,504,476,467
81678,512,500,519
81682,527,517,518
81686,511,527,514
81690,497,513,514
81694,523,499,486
81698,496,487,481
81702,503,475,473
81705,504,504,501
81709,499,508,502
81712,500,495,519
81716,515,527,529
81720,514,530,509
81724,514,541,550
81728,511,516,524
81732,493,498,492
81736,507,519,501
81740,504,512,513
81744,504,469,482
81748,517,503,515
81753,515,534,500
81757,491,503,507
81761,491,528,573
81765,531,498,502
81769,507,472,465
81773,490,509,504
81777,514,493,493
81781,504,487,523
81785,485,551,570
81789,501,552,570
81794,518,538,544
81798,522,548,519
81802,493,492,464
81806,488,470,474
81810,512,492,501
81814,527,495,482
81818,518,491,462
81822,487,479,465
81826,485,478,506
81830,506,513,512
81835,510,536,514
81839,503,502,517
81843,511,500,502
81847,497,494,561
81851,499,566,602
81855,523,531,543
81859,541,496,480
81863,516,478,470
81867,484,490,488
81870,476,480,486
81873,493,500,487
81878,501,511,533
81882,498,521,567
81886,515,538,562
81890,514,518,492
81894,512,499,450
81898,502,505,480
81902,513,495,493
81906,505,525,520
81910,512,526,516
81914,501,523,482
81918,499,494,492
81923,502,482,506
81927,511,519,550
81931,510,551,548
81935,514,533,547
81939,501,498,505
81943,500,475,474
81947,509,475,468
81951,529,500,500
81955,491,549,530
81959,507,513,508
81964,499,520,511
81968,500,523,527
81972,495,501,527
81976,512,481,497
81980,531,491,507
81984,512,525,515
81988,495,521,522
81992,494,510,539
81996,501,521,502
82000,506,489,484
82004,511,502,496
82009,527,501,493
82013,502,495,500
82017,496,512,514
82021,504,520,524
82025,504,509,509
82029,506,513,516
82032,528,543,516
82035,516,479,477
82038,510,474,483
82042,512,502,504
82046,503,536,545
82051,502,502,499
82055,510,463,478
82059,511,497,497
82063,517,540,536
82067,524,516,512
82071,514,489,485
82075,498,482,493
82079,491,516,525
82083,515,527,540
82087,509,512,511
82092,509,503,486
82096,504,506,473
82100,499,465,485
82104,493,483,551
82108,519,543,557
82112,513,544,522
82116,500,536,516
82120,503,539,539
82124,500,476,479
82128,515,429,461
82132,512,480,478
82137,503,520,480
82141,497,523,477
82145,508,537,506
82149,516,528,528
82153,502,523,539
82157,503,503,511
82161,505,471,522
82165,510,502,551
82169,507,537,502
82173,519,503,461
82178,503,496,506
82182,507,542,547
82186,510,507,474
82190,511,494,488
82194,500,511,510
82197,518,512,512
82200,527,483,481
82203,503,485,478
82207,496,486,479
82211,488,500,498
82215,510,528,504
82220,520,510,519
82224,506,510,534
82228,526,494,497
82232,534,485,506
82236,503,515,558
82240,491,529,523
82244,494,499,488
82248,509,458,480
82252,517,520,533
82256,498,517,495
82260,502,498,487
82265,497,553,537
82269,495,561,594
82273,520,520,525
82277,505,477,446
82281,511,473,445
82285,514,487,488
82289,508,491,509
82293,508,502,511
82297,504,488,501
82301,518,515,506
82306,506,561,521
82310,516,522,508
82314,506,507,522
82318,493,511,526
82322,502,497,503
82326,501,478,507
82330,500,501,547
82334,515,531,522
82338,513,494,477
82342,510,505,491
82347,512,507,495
82351,497,523,510
82355,501,505,509
82358,527,490,487
82361,516,507,511
82364,514,496,528
82368,498,494,515
82372,503,518,489
82376,506,526,520
82380,498,499,505
82384,487,487,497
82388,513,491,492
82393,522,478,486
82397,510,507,498
82401,497,518,507
82405,506,536,558
82409,516,527,530
82413,510,493,492
82417,521,502,498
82421,508,521,513
82425,501,514,531
82429,507,505,484
82434,498,484,478
82438,516,494,499
82442,522,505,521
82446,511,500,527
82450,515,490,509
82454,523,493,488
82458,503,511,490
82462,500,516,535
82466,515,565,586
82470,509,524,508
82475,527,479,470
82479,515,469,468
82483,493,517,499
82487,484,502,514
82491,493,498,518
82495,505,517,529
82499,518,517,531
82503,503,508,511
82507,491,502,502
82511,504,543,536
82515,500,518,497
82519,522,500,490
82522,512,494,493
82525,516,487,504
82528,514,522,523
82532,501,507,507
82536,519,496,496
82540,505,508,500
82544,513,562,542
82548,497,539,512
82552,492,519,517
82556,514,502,488
82561,517,492,480
82565,513,508,516
82569,508,530,519
82573,496,507,494
82577,505,493,487
82581,525,481,503
82585,509,489,500
82589,514,506,517
82593,498,534,520
82597,503,522,521
82601,501,496,489
82606,510,490,484
82610,506,500,503
82614,520,515,512
82618,512,497,489
82622,523,528,520
82626,525,523,517
82630,498,499,494
82634,489,497,491
82638,505,505,498
82642,505,524,511
82647,502,505,512
82651,508,495,489
82655,507,514,504
82659,504,547,543
82663,502,519,546
82667,513,509,565
82671,524,513,503
82675,512,495,473
82679,508,488,482
82682,508,495,470
82685,512,486,496
82689,515,498,517
82693,518,532,534
82697,516,527,521
82701,502,493,501
82705,491,509,536
82709,500,512,529
82713,503,506,519
82717,508,533,512
82721,502,526,486
82725,516,482,486
82729,519,481,505
82734,512,468,494
82738,498,478,496
82742,498,522,519
82746,516,519,541
82750,498,493,498
82754,503,516,510
82758,511,503,508
82762,500,504,497
82766,501,494,488
82770,505,516,511
82775,506,535,538
82779,519,512,538
82783,517,513,518
82787,500,487,495
82791,500,494,505
82795,505,516,509
82799,519,506,502
82803,509,506,492
82807,495,501,515
82811,500,516,519
82816,526,499,506
82820,513,520,525
82824,499,541,548
82828,497,496,498
82832,494,478,477
82836,500,454,480
82840,503,491,511
82843,506,526,542
82846,508,527,541
82849,530,499,510
82853,513,513,525
82857,497,494,492
82862,505,506,494
82866,519,502,494
82870,506,491,491
82874,507,519,514
82878,500,514,518
82882,505,546,538
82886,505,502,501
82890,511,479,487
82894,510,491,509
82898,509,500,509
82903,526,499,502
82907,527,520,537
82911,500,560,535
82915,493,527,501
82919,499,482,490
82923,518,494,504
82927,498,497,517
82931,499,522,539
82935,508,528,536
82939,523,509,498
82944,512,511,497
82948,499,509,511
82952,497,505,504
82956,516,492,487
82960,503,496,517
82964,516,525,539
82968,513,501,488
82972,514,502,505
82976,497,517,519
82980,493,523,512
82984,509,526,489
82989,510,512,504
82993,505,510,531
82997,508,532,542
83001,507,521,529
83005,518,505,504
83008,510,496,496
83011,506,503,523
83014,493,526,530
83018,495,520,510
83022,513,525,505
83026,522,507,488
83031,509,489,487
83035,503,493,500
83039,510,489,507
83043,500,512,527
83047,521,530,542
83051,505,536,537
83055,502,540,535
83059,507,519,489
83063,505,502,478
83067,510,505,484
83072,503,521,509
83076,508,500,521
83080,514,505,513
83084,523,494,507
83088,514,498,520
83092,501,519,509
83096,497,499,498
83100,505,518,513
83104,505,534,550
83108,512,530,534
83112,515,534,515
83117,502,506,494
83121,503,510,516
83125,508,525,517
83129,503,494,487
83133,502,494,502
83137,516,505,515
83141,515,499,506
83145,507,517,520
83149,512,535,546
83153,521,508,517
83158,514,516,514
83162,510,524,514
83166,502,508,479
83169,515,497,505
83172,508,505,522
83175,502,503,526
83179,514,490,507
83183,512,515,517
83187,509,522,519
83191,506,501,504
83195,498,517,519
83200,492,524,521
83204,507,509,520
83208,511,492,494
83212,511,490,480
83216,512,502,498
83220,498,499,506
83224,502,519,534
83228,512,495,514
83232,525,509,515
83236,504,511,514
83240,499,513,500
83245,506,501,492
83249,503,510,504
83253,505,529,531
83257,512,534,547
83261,542,507,516
83265,515,498,478
83269,495,506,498
83273,496,507,513
83277,489,502,498
83281,502,523,535
83286,531,539,554
83290,526,507,494
83294,511,510,506
83298,506,534,536
83302,494,525,516
83306,506,495,500
83310,507,505,509
83314,521,513,504
83318,509,515,512
83322,509,509,499
83326,504,502,491
83331,512,506,496
83334,508,517,515
83337,514,508,503
83340,518,533,533
83344,509,514,527
83348,506,481,507
83352,503,509,516
83356,499,536,503
83360,520,492,489
83364,521,485,489
83368,497,510,515
83373,495,528,545
83377,503,525,523
83381,499,502,502
83385,508,505,496
83389,526,531,516
83393,521,532,532
83397,491,508,517
83401,491,503,496
83405,505,504,517
83409,518,506,507
83414,529,520,499
83418,508,512,517
83422,497,521,513
83426,497,515,518
83430,514,501,518
83434,509,511,521
83438,508,509,511
83442,500,515,498
83446,496,506,520
83450,518,499,502
83454,515,495,492
83459,501,511,498
83463,506,513,505
83467,502,499,500
83471,503,486,497
83475,529,509,502
83479,507,511,514
83483,507,497,510
83487,502,515,520
83491,517,510,495
83494,501,517,519
83497,502,524,528
83501,505,485,502
83504,515,501,496
83508,503,540,518
83512,501,521,517
83516,517,507,492
83520,515,515,499
83524,494,492,517
83528,497,505,528
83532,507,499,516
83536,517,491,492
83540,509,501,502
83545,503,517,528
83549,502,507,497
83553,511,506,496
83557,507,493,493
83561,509,492,485
83565,526,533,514
83569,509,530,525
83573,515,511,516
83577,512,508,509
83581,508,496,508
83586,503,507,484
83590,501,493,488
83594,506,505,527
83598,512,514,529
83602,517,500,519
83606,503,513,548
83610,500,496,510
83614,511,491,478
83618,515,498,489
83622,513,510,501
83627,501,526,522
83631,501,515,525
83635,495,514,521
83639,503,524,511
83643,511,511,506
83647,508,534,531
83651,510,498,497
83655,504,497,482
83658,505,520,502
83661,525,494,520
83664,507,503,514
83668,503,513,493
83673,506,511,507
83677,502,513,532
83681,506,504,512
83685,512,515,503
83689,517,523,517
83693,518,515,520
83697,508,506,506
83701,502,505,519
83705,499,493,511
83709,504,490,504
83714,507,491,494
83718,518,524,530
83722,508,517,526
83726,502,491,492
83730,502,507,486
83734,505,530,529
83738,514,529,525
83742,515,515,497
83746,495,508,470
83750,492,501,501
83755,501,496,508
83759,513,490,514
83763,525,525,527
83767,508,518,514
83771,493,504,507
83775,498,514,519
83779,507,521,522
83783,507,512,523
83787,508,522,521
83791,503,499,502
83795,517,500,507
83800,521,487,487
83804,500,493,504
83808,496,509,506
83812,503,497,490
83816,516,487,485
83819,514,502,505
83822,499,516,519
83825,515,511,529
83829,521,517,507
83833,506,504,492
83837,512,520,526
83842,503,536,554
83846,494,505,512
83850,512,500,492
83854,512,519,499
83858,501,522,541
83862,500,502,508
83866,520,504,491
83870,519,481,496
83874,499,497,496
83878,492,501,500
83883,508,493,512
83887,514,497,501
83891,512,498,506
83895,512,516,523
83899,505,524,518
83903,522,516,504
83907,508,519,518
83911,506,510,509
83915,495,510,495
83919,494,508,507
83923,500,502,517
83928,506,497,493
83932,511,518,525
83936,510,519,528
83940,504,514,511
83944,500,503,498
83948,509,516,506
83952,519,516,518
83956,521,516,494
83960,508,519,505
83964,510,518,525
83969,511,497,501
83973,511,515,512
83977,505,518,498
83981,509,526,509
83984,520,520,503
83987,503,492,501
83990,505,512,519
83994,504,537,532
83998,501,525,506
84002,508,504,491
84006,511,514,507
84011,515,509,484
84015,514,473,476
84019,499,524,501
84023,506,543,515
84027,523,524,554
84031,509,492,517
84035,496,473,467
84039,503,498,484
84043,502,493,508
84047,507,494,514
84051,514,519,522
84056,518,530,521
84060,511,532,505
84064,504,540,542
84068,502,517,525
84072,504,508,492
84076,515,498,474
84080,521,488,466
84084,532,486,478
84088,522,529,506
84092,498,525,524
84097,494,537,537
84101,495,538,549
84105,501,520,548
84109,499,517,533
84113,504,491,486
84117,510,478,478
84121,527,477,471
84125,508,505,476
84129,499,487,497
84133,508,512,513
84137,511,510,505
84142,523,525,507
84145,525,536,520
84148,499,517,503
84151,495,530,514
84155,499,513,508
84159,505,502,499
84163,511,535,538
84167,522,558,529
84171,519,522,503
84175,500,494,500
84179,496,483,527
84184,506,504,546
84188,506,550,506
84192,515,538,497
84196,516,479,516
84200,510,546,610
84204,497,517,545
84208,496,465,461
84212,511,507,490
84216,525,529,503
84220,530,493,473
84225,508,534,490
84229,504,506,492
84233,492,507,505
84237,497,507,498
84241,503,493,530
84245,503,492,525
84249,522,500,488
84253,516,502,478
84257,510,503,498
84261,506,531,523
84265,495,513,507
84270,502,512,541
84274,515,516,572
84278,510,552,575
84282,495,536,522
84286,504,504,513
84290,516,591,595
84294,530,513,519
84298,522,445,441
84302,502,470,479
84305,501,536,535
84308,510,527,511
84312,516,495,526
84315,517,526,537
84319,513,477,457
84323,502,486,452
84327,496,496,481
84331,507,484,493
84335,508,487,490
84339,504,506,485
84343,503,513,492
84347,511,510,501
84352,507,506,509
84356,500,527,534
84360,507,571,540
84364,505,521,524
84368,511,488,484
84372,524,495,538
84376,513,550,601
84380,510,584,601
84384,507,519,492
84388,498,477,455
84392,495,501,496
84397,506,585,621
84401,508,569,554
84405,518,509,458
84409,520,484,455
84413,512,467,435
84417,497,497,440
84421,496,516,519
84425,505,508,520
84429,509,461,463
84433,500,456,469
84438,509,475,500
84442,512,508,491
84446,515,516,497
84450,510,503,505
84454,503,542,516
84458,510,591,567
84462,510,551,543
84466,502,510,526
84469,509,507,539
84472,502,528,516
84475,505,519,460
84480,508,558,522
84484,502,564,530
84488,512,429,453
84492,507,402,441
84496,501,438,452
84500,508,438,461
84504,511,475,518
84508,511,565,560
84512,517,509,496
84516,501,496,460
84520,505,497,485
84525,508,519,529
84529,511,456,519
84533,510,442,513
84537,509,486,529
84541,513,514,545
84545,508,528,525
84549,506,549,548
84553,515,508,531
84557,515,501,472
84561,499,538,490
84566,502,571,480
84570,516,504,475
84574,506,446,475
84578,502,463,492
84582,504,488,511
84586,506,542,544
84590,512,513,507
84594,497,471,471
84598,504,457,461
84602,510,513,502
84606,504,541,513
84611,492,533,533
84615,500,525,531
84619,527,502,510
84623,514,527,516
84627,505,558,587
84630,504,599,607
84633,508,577,551
84636,519,469,473
84639,506,448,437
84643,500,429,450
84647,506,464,476
84652,501,491,491
84656,499,479,491
84660,507,497,497
84664,502,503,492
84668,505,506,489
84672,502,501,519
84676,500,526,522
84680,511,524,520
84684,521,576,540
84688,507,535,470
84692,515,496,510
84697,501,510,532
84701,494,487,505
84705,507,516,531
84709,499,488,498
84713,521,530,499
84717,512,546,560
84721,496,564,615
84725,511,518,528
84729,503,480,468
84733,512,488,461
84738,522,484,482
84742,525,487,499
84746,514,495,500
84750,529,536,491
84754,512,524,489
84758,504,504,486
84762,503,495,517
84766,507,494,536
84770,494,481,531
84774,498,557,551
84779,506,519,484
84783,506,475,474
84787,512,482,491
84791,516,509,503
84794,501,561,525
84797,502,577,556
84800,503,518,517
84804,506,474,493
84808,509,495,519
84812,509,547,550
84816,504,525,547
84820,505,495,476
84825,500,483,463
84829,510,467,492
84833,511,489,509
84837,506,496,502
84841,504,515,498
84845,502,520,497
84849,511,526,518
84853,509,558,514
84857,511,519,488
84861,517,478,489
84866,519,529,571
84870,514,520,542
84874,527,488,487
84878,525,490,464
84882,508,500,497
84886,500,495,532
84890,493,502,540
84894,508,530,562
84898,511,550,544
84902,503,525,498
84907,506,487,472
84911,510,494,475
84915,515,544,536
84919,496,531,512
84923,491,495,477
84927,494,491,471
84931,504,496,492
84935,530,490,498
84939,534,522,502
84943,501,523,532
84947,507,501,527
84952,508,535,508
84956,510,575,549
84959,514,529,549
84962,506,439,488
84966,510,452,480
84970,515,498,500
84974,515,511,509
84978,507,506,517
84982,509,496,516
84986,517,483,503
84990,517,515,513
84995,492,543,528
84999,497,524,514
85003,499,517,498
85007,498,528,500
85011,512,511,494
85015,514,474,493
85019,520,476,496
85023,505,499,496
85027,497,492,515
85031,490,534,553
85036,507,527,556
85040,516,524,535
85044,525,500,512
85048,516,485,493
85052,516,508,495
85056,505,504,495
85060,496,470,488
85064,501,526,513
85068,501,524,523
85072,496,540,507
85076,515,488,489
85081,510,473,494
85085,516,496,499
85089,521,502,522
85093,505,511,512
85097,504,508,499
85101,504,551,532
85105,504,529,486
85109,504,491,476
85113,498,506,529
85117,510,535,529
85121,516,521,510
85124,513,488,506
85127,512,491,500
85131,510,509,521
85135,507,515,540
85139,510,536,510
85143,504,501,497
85147,499,488,499
85151,505,503,513
85155,499,529,514
85159,519,516,484
85164,518,496,487
85168,511,528,524
85172,500,523,546
85176,503,491,518
85180,503,476,493
85184,505,504,508
85188,513,525,541
85192,515,505,514
85196,514,479,488
85200,500,490,487
85204,494,513,520
85209,499,523,515
85213,498,511,511
85217,517,521,511
85221,505,508,502
85225,515,515,502
85229,513,491,490
85233,510,538,506
85237,510,559,543
85241,507,529,490
85245,507,524,500
85250,504,480,512
85254,504,489,498
85258,500,496,503
85262,499,527,543
85266,499,518,535
85270,512,484,508
85274,515,492,510
85278,512,518,503
85281,507,519,511
85284,504,520,500
85287,506,500,501
85291,518,508,528
85295,517,532,529
85299,506,525,513
85303,518,541,533
85307,510,488,498
85311,509,505,498
85315,510,526,499
85319,522,491,491
85323,505,495,489
85327,502,505,501
85331,501,474,489
85336,494,526,521
85340,499,569,535
85344,511,509,499
85348,506,484,494
85352,509,485,505
85356,513,507,519
85360,517,520,511
85364,514,519,495
85368,504,508,520
85372,502,494,532
85377,510,486,523
85381,509,514,501
85385,506,510,493
85389,507,529,524
85393,517,536,539
85397,511,499,502
85401,502,510,504
85405,495,512,498
85409,498,507,496
85413,516,510,507
85417,523,526,524
85422,514,521,522
85426,501,523,506
85430,513,519,508
85434,511,507,519
85438,499,492,501
85442,506,511,508
85445,497,552,515
85448,493,491,491
85451,508,488,505
85455,507,492,502
85459,507,517,525
85464,506,531,542
85468,511,513,523
85472,498,502,501
85476,505,501,491
85480,512,500,499
85484,508,492,493
85488,504,486,504
85492,493,510,507
85496,507,511,519
85500,511,496,518
85505,509,502,519
85509,503,502,497
85513,513,523,518
85517,520,512,512
85521,504,501,506
85525,504,504,504
85529,500,485,505
85533,498,513,499
85537,501,571,533
85541,494,549,563
85545,507,461,490
85550,507,481,494
85554,503,526,510
85558,504,520,499
85562,508,526,513
85566,504,489,495
85570,504,489,482
85574,503,534,514
85578,506,538,507
85582,502,491,496
85586,513,478,523
85591,509,485,548
85595,512,505,509
85599,505,543,504
85603,513,491,497
85606,502,481,488
85609,502,490,492
85612,505,487,499
85616,505,511,514
85620,511,524,511
85624,519,518,508
85628,510,512,490
85633,513,528,509
85637,516,535,533
85641,506,542,534
85645,500,499,503
85649,502,515,492
85653,516,521,492
85657,511,498,511
85661,510,473,500
85665,500,477,481
85669,500,484,502
85673,504,513,531
85678,499,519,515
85682,508,529,505
85686,515,536,518
85690,505,518,521
85694,513,520,505
85698,513,517,515
85702,506,554,537
85706,516,529,502
85710,509,497,497
85714,514,486,486
85719,508,482,505
85723,498,492,501
85727,512,517,501
85731,517,491,493
85735,515,478,508
85739,516,525,551
85743,512,525,540
85747,508,506,494
85751,502,520,507
85755,505,489,484
85760,516,518,511
85764,510,519,500
85768,522,487,481
85771,507,506,503
85774,502,516,509
85777,502,494,498
85781,496,511,509
85785,515,504,517
85789,513,521,519
85793,519,544,528
85797,513,538,516
85801,512,513,520
85806,506,527,515
85810,512,534,485
85814,505,489,487
85818,503,506,526
85822,519,511,523
85826,515,515,500
85830,515,503,516
85834,505,500,520
85838,503,509,498
85842,503,540,491
85847,508,531,504
85851,506,523,514
85855,511,504,525
85859,499,453,503
85863,486,490,513
85867,499,496,501
85871,509,502,506
85875,510,514,524
85879,511,534,530
85883,507,504,493
85888,516,485,490
85892,511,515,509
85896,517,522,521
85900,516,483,508
85904,490,488,498
85908,497,523,485
85912,511,505,479
85916,516,493,501
85920,504,503,518
85924,504,519,518
85928,502,497,524
85932,509,528,555
85935,511,512,527
85938,508,505,499
85942,517,515,521
85946,510,529,529
85950,498,527,490
85954,503,510,490
85958,514,527,501
85962,515,489,512
85966,503,488,534
85970,503,489,527
85975,511,484,490
85979,505,489,488
85983,501,503,503
85987,500,515,507
85991,508,526,505
85995,510,524,525
85999,505,531,541
86003,497,543,521
86007,504,555,492
86011,507,527,493
86016,509,502,513
86020,513,477,525
86024,526,473,507
86028,523,470,489
86032,502,485,506
86036,493,492,497
86040,500,508,506
86044,495,536,511
86048,511,543,502
86052,525,516,511
86056,503,536,513
86061,496,515,502
86065,501,518,508
86069,501,525,514
86073,505,496,512
86077,512,491,512
86081,514,486,496
86085,513,501,494
86089,510,510,485
86092,503,508,505
86095,497,502,501
86098,509,499,503
86102,508,510,512
86106,498,520,505
86110,501,510,506
86114,512,519,514
86118,509,531,540
86122,505,531,528
86126,502,523,511
86130,503,509,494
86134,502,504,492
86138,503,505,499
86142,513,509,502
86147,528,511,515
86151,505,502,500
86155,498,491,489
86159,498,519,508
86163,500,526,518
86167,510,522,521
86171,514,526,510
86175,516,513,486
86179,512,490,502
86183,506,511,504
86188,506,499,502
86192,515,492,499
86196,514,541,517
86200,507,519,523
86204,506,502,504
86208,505,499,478
86212,507,493,502
86216,506,497,520
86220,509,498,531
86224,513,527,544
86228,514,526,508
86233,510,511,497
86237,509,508,504
86241,498,528,515
86245,506,536,496
86249,505,517,490
86253,502,503,523
86256,511,520,513
86259,516,532,502
86262,516,504,502
86266,508,465,489
86270,498,468,505
86275,506,498,535
86279,508,505,515
86283,510,503,480
86287,514,526,527
86291,515,543,549
86295,505,526,508
86299,507,532,484
86303,516,509,504
86307,514,473,496
86311,511,459,488
86316,512,482,502
86320,508,482,518
86324,507,499,514
86328,497,512,518
86332,496,540,534
86336,511,553,545
86340,523,536,510
86344,513,508,482
86348,500,527,504
86352,501,505,497
86356,497,482,491
86361,496,486,504
86365,502,483,504
86369,504,509,518
86373,510,533,540
86377,513,530,513
86381,510,504,496
86385,506,514,496
86389,519,499,494
86393,500,541,510
86397,493,513,522
86402,504,500,540
86406,504,525,534
86410,516,507,504
86414,524,491,500
86417,524,505,510
86420,499,504,499
86423,511,497,492
86427,518,513,503
86431,507,524,525
86435,504,510,505
86439,501,504,520
86444,509,514,528
86448,509,506,500
86452,517,535,504
86456,517,544,520
86460,509,505,501
86464,506,494,506
86468,509,487,514
86472,503,520,484
86476,504,510,453
86480,505,463,513
86484,522,504,559
86489,505,553,550
86493,499,511,511
86497,504,469,493
86501,506,493,506
86505,508,494,504
86509,508,484,495
86513,508,498,507
86517,517,485,500
86521,517,481,495
86525,501,500,500
86530,501,526,523
86534,518,530,499
86538,514,549,530
86542,503,553,518
86546,503,471,495
86550,507,460,491
86554,519,495,499
86558,500,506,532
86562,500,511,523
86566,512,523,525
86571,506,515,499
86575,508,512,488
86579,517,496,518
86582,523,538,538
86585,517,515,498
86588,504,473,476
86592,498,486,507
86596,516,494,498
86600,513,496,501
86604,509,534,537
86608,498,543,530
86612,504,513,513
86617,512,488,491
86621,513,498,491
86625,502,506,504
86629,512,514,499
86633,509,504,501
86637,503,485,501
86641,490,536,517
86645,497,506,496
86649,503,527,500
86653,513,539,538
86658,514,523,530
86662,503,464,514
86666,505,449,490
86670,507,493,500
86674,506,514,526
86678,509,523,522
86682,509,508,492
86686,503,504,500
86690,495,486,489
86694,505,516,510
86699,509,533,528
86703,503,516,518
86707,508,492,503
86711,510,519,492
86715,501,519,513
86719,502,522,553
86723,510,519,518
86727,503,512,495
86731,510,486,486
86735,510,476,497
86739,501,496,512
86743,512,493,496
86746,508,491,500
86749,496,507,514
86753,499,521,499
86757,499,528,496
86761,506,506,507
86765,517,507,504
86769,503,520,508
86773,506,492,543
86777,497,510,548
86781,517,523,509
86786,511,538,503
86790,502,537,525
86794,499,513,514
86798,497,513,493
86802,504,495,500
86806,505,488,513
86810,502,525,518
86814,514,521,513
86818,514,502,517
86822,523,514,519
86827,512,478,483
86831,518,505,492
86835,521,511,494
86839,497,532,499
86843,497,505,501
86847,498,489,521
86851,503,519,534
86855,505,523,516
86859,504,522,502
86863,504,515,518
86867,509,512,529
86872,517,496,513
86876,514,506,524
86880,504,528,521
86884,508,527,508
86888,508,515,511
86892,503,513,498
86896,510,512,493
86900,505,520,500
86903,509,508,498
86906,510,519,517
86909,509,515,539
86913,501,506,517
86917,507,495,496
86921,514,505,508
86925,508,525,520
86929,509,542,521
86933,526,524,522
86937,520,494,497
86941,509,508,493
86945,523,504,511
86949,509,522,539
86953,509,507,510
86958,495,495,498
86962,505,512,508
86966,515,523,517
86970,518,498,503
86974,512,491,501
86978,502,493,502
86982,502,521,502
86986,523,494,492
86990,525,488,493
86994,517,497,503
86999,509,496,513
87003,512,514,544
87007,499,525,546
87011,500,518,519
87015,509,501,497
87019,504,491,489
87023,497,484,485
87027,501,496,487
87031,502,517,509
87035,511,535,514
87040,518,523,509
87044,522,489,501
87048,510,494,508
87052,487,500,512
87056,489,495,509
87060,503,525,512
87064,517,531,520
87067,521,539,536
87070,500,540,549
87073,509,490,526
87077,522,487,499
87081,515,488,486
87086,504,494,492
87090,510,508,521
87094,519,527,515
87098,502,505,493
87102,511,493,495
87106,503,505,513
87110,507,548,545
87114,505,520,514
87118,513,492,491
87122,508,490,491
87127,494,495,496
87131,502,495,496
87135,506,496,505
87139,495,508,509
87143,510,525,511
87147,525,503,509
87151,512,488,500
87155,500,505,509
87159,506,549,562
87163,519,554,551
87168,503,502,479
87172,499,483,484
87176,500,490,490
87180,508,503,504
87184,511,505,505
87188,500,501,489
87192,506,499,481
87196,510,516,501
87200,510,521,507
87204,513,512,497
87208,522,503,487
87213,520,527,520
87217,505,531,526
87221,505,530,527
87225,503,567,559
87228,506,522,522
87231,517,499,497
87234,504,492,493
87238,516,487,493
87242,507,497,518
87246,511,513,527
87250,521,508,494
87255,506,492,473
87259,503,494,484
87263,516,506,498
87267,499,517,504
87271,500,524,498
87275,512,523,521
87279,519,540,542
87283,518,537,539
87287,516,522,514
87291,507,495,506
87296,511,495,496
87300,514,504,496
87304,512,491,504
87308,504,489,509
87312,495,493,510
87316,496,525,536
87320,512,527,516
87324,516,503,499
87328,518,497,500
87332,499,508,501
87336,499,506,507
87341,505,526,548
87345,517,539,537
87349,513,521,496
87353,498,522,492
87357,502,487,484
87361,515,488,499
87365,509,495,504
87369,512,491,500
87373,525,516,508
87377,500,502,505
87382,492,491,499
87386,495,507,495
87390,512,527,510
87393,530,536,526
87396,506,543,547
87399,489,524,525
87403,500,492,475
87407,508,502,487
87411,512,517,508
87415,510,497,509
87419,516,491,523
87424,502,499,523
87428,514,491,493
87432,510,494,493
87436,503,487,495
87440,511,498,496
87444,518,507,503
87448,520,518,495
87452,501,508,501
87456,501,502,505
87460,509,503,499
87464,514,508,502
87469,533,501,505
87473,518,502,514
87477,496,525,521
87481,485,518,509
87485,496,514,508
87489,505,517,514
87493,519,503,509
87497,517,502,501
87501,504,496,500
87505,501,510,504
87510,505,518,508
87514,512,510,509
87518,532,512,513
87522,512,496,506
87526,495,504,501
87530,486,507,496
87534,489,506,505
87538,490,506,505
87542,501,517,502
87546,499,514,511
87550,494,514,516
87554,503,503,507
87557,503,503,504
87560,503,498,505
87564,510,505,507
87568,513,508,512
87572,513,502,503
87576,506,499,504
87580,508,507,510
87584,522,509,514
87588,504,510,515
87592,495,500,507
87597,500,495,507
87601,502,501,506
87605,503,503,505
87609,508,504,504
87613,500,501,503
87617,500,501,504
87621,502,506,507
87625,501,500,505
87629,503,504,503
87633,507,506,496
87638,506,502,495
87642,502,501,500
87646,499,502,505
87650,509,500,507
87654,519,500,505
87658,511,497,505
87662,510,499,507
87666,518,503,505
87670,513,502,503
87674,510,500,499
87678,498,502,498
87683,508,507,500
87687,505,507,498
87691,500,504,496
87695,506,497,498
87699,512,500,500
87703,507,504,500
87707,513,504,500
87711,506,507,499
87714,509,507,496
87717,510,504,499
87720,512,500,503
87724,516,499,501
87728,511,497,498
87732,508,501,505
87736,509,508,508
87740,509,512,502
87744,512,508,505
87748,508,503,505
87752,503,500,504
87756,500,502,502
87760,501,502,505
87764,499,499,506
87769,498,497,506
87773,503,501,509
87777,503,503,506
87781,504,503,502
87785,508,502,502
87789,516,502,507
87793,509,504,508
87797,499,504,508
87801,501,504,506
87805,507,502,507
87810,518,503,517
87814,523,501,515
87818,505,504,512
87822,500,508,503
87826,501,502,501
87830,505,500,508
87834,518,503,515
87838,503,506,512
87842,497,509,510
87846,499,507,509
87851,501,505,507
87855,509,505,507
87859,504,509,505
87863,510,512,503
87867,511,513,502
87871,512,514,504
87875,506,515,506
87878,502,514,509
87881,508,511,506
87884,505,508,509
87888,501,508,512
87892,503,509,512
87897,507,512,511
87901,506,510,513
87905,503,509,517
87909,503,508,514
87913,504,510,511
87917,509,511,510
87921,510,510,507
87925,505,510,504
87929,511,506,507
87933,499,506,504
87938,514,510,507
87942,510,510,508
87946,515,510,509
87950,501,517,511
87954,503,520,512
87958,502,517,513
87962,505,513,523
87966,501,512,524
87970,501,516,520
87974,513,523,523
87979,498,517,515
87983,504,508,512
87987,516,506,511
87991,506,510,513
87995,506,515,514
87999,505,516,509
88003,500,520,500
88007,502,511,508
88011,514,513,514
88015,508,511,511
88019,504,513,515
88024,503,512,517
88028,500,512,511
88032,506,512,509
88036,510,518,512
88040,498,519,515
88043,503,510,516
88046,512,512,510
88050,507,515,506
88054,510,512,505
88058,505,507,507
88062,505,509,513
88067,512,514,515
88071,510,517,516
88075,502,518,515
88079,512,515,515
88083,501,511,514
88087,514,508,515
88091,512,512,513
88095,508,510,513
88099,510,509,507
88103,508,508,510
88108,511,511,520
88112,506,509,516
88116,510,506,511
88120,505,505,509
88124,506,507,518
88128,504,509,517
88132,516,511,515
88136,520,510,510
88140,514,510,508
88144,515,511,510
88148,506,516,513
88153,510,517,514
88157,508,516,508
88161,508,512,505
88165,504,510,504
88169,518,512,508
88173,518,514,508
88177,504,517,508
88181,504,515,511
88185,502,513,511
88189,505,514,509
88194,510,513,508
88198,506,511,504
88202,506,514,506
88205,503,514,507
88208,515,519,505
88211,512,522,507
88215,509,516,508
88219,512,511,502
88223,506,510,508
88227,505,514,511
88231,502,514,509
88236,514,510,509
88240,506,510,509
88244,504,513,508
88248,515,518,503
88252,513,515,508
88256,506,506,507
88260,502,502,507
88264,511,506,507
88268,506,510,509
88272,508,510,509
88276,504,510,511
88281,505,510,514
88285,510,510,515
88289,517,519,515
88293,509,514,504
88297,511,507,515
88301,508,505,517
88305,511,512,515
88309,515,515,515
88313,514,512,515
88317,507,508,513
88322,505,508,513
88326,510,511,513
88330,515,512,514
88334,507,512,513
88338,508,511,514
88342,508,511,515
88346,506,513,516
88350,506,514,512
88354,508,511,511
88358,507,509,512
88363,508,513,511
88366,507,514,513
88369,514,512,510
88372,513,508,510
88375,509,508,515
88379,509,509,517
88383,513,511,515
88387,513,510,513
88391,508,505,514
88395,510,504,513
88399,512,509,512
88403,505,510,513
88408,503,506,513
88412,509,503,512
88416,505,507,513
88420,508,509,506
88424,507,506,512
88428,509,506,514
88432,511,506,513
88436,510,506,514
88440,519,511,515
88444,520,517,516
88449,507,514,514
88453,499,510,511
88457,503,508,513
88461,511,511,514
88465,509,512,512
88469,502,514,510
88473,510,512,509
88477,510,510,509
88481,509,511,506
88485,513,512,509
88489,509,511,510
88494,508,508,511
88498,510,508,513
88502,507,512,513
88506,504,511,510
88510,507,507,510
88514,505,505,511
88518,505,508,513
88522,504,513,512
88526,511,514,511
88529,506,509,508
88532,498,510,509
88536,501,513,512
88540,504,514,514
88544,508,512,511
88548,515,508,509
88552,511,511,512
88556,506,518,513
88560,505,521,513
88564,514,517,512
88568,507,511,512
88572,503,506,510
88577,504,511,511
88581,504,517,508
88585,503,513,512
88589,506,506,515
88593,508,507,512
88597,503,510,513
88601,507,512,514
88605,509,510,515
88609,510,511,515
88613,511,516,515
88617,514,522,513
88622,507,519,507
88626,511,513,511
88630,514,511,516
88634,504,514,518
88638,498,517,516
88642,494,514,513
88646,499,512,516
88650,505,511,515
88654,509,513,516
88658,512,516,519
88663,512,514,518
88667,511,511,512
88671,504,511,508
88675,504,508,511
88679,516,510,515
88683,514,511,517
88687,509,507,516
88690,503,507,516
88693,507,508,516
88696,516,511,515
88700,515,512,516
88705,499,506,510
88709,500,504,511
88713,506,507,511
88717,510,510,510
88721,507,513,506
88725,509,509,508
88729,511,507,511
88733,521,512,509
88737,501,511,507
88741,498,507,508
88745,501,505,509
88750,507,508,511
88754,501,509,511
88758,508,511,512
88762,506,508,516
88766,505,502,511
88770,508,502,515
88774,508,504,519
88778,512,505,512
88782,511,502,512
88786,507,499,514
88791,510,500,512
88795,507,506,511
88799,508,508,511
88803,501,504,507
88807,505,505,508
88811,512,510,507
88815,513,514,510
88819,509,514,509
88823,515,511,509
88827,517,510,512
88832,503,512,512
88836,506,515,512
88840,511,511,504
88844,507,506,504
88848,506,508,512
88852,501,513,508
88855,504,513,507
88858,501,509,510
88861,504,508,512
88865,507,508,508
88869,511,510,506
88873,509,514,506
88878,508,516,507
88882,506,509,511
88886,509,508,514
88890,506,509,511
88894,516,510,510
88898,512,510,512
88902,503,511,510
88906,507,514,509
88910,505,516,519
88914,507,513,518
88919,507,509,515
88923,511,506,513
88927,506,509,514
88931,514,515,509
88935,514,514,503
88939,511,508,505
88943,508,509,511
88947,505,513,509
88951,504,512,510
88955,511,511,510
88960,511,508,508
88964,509,510,511
88968,499,511,511
88972,506,511,511
88976,505,510,509
88980,511,505,509
88984,514,509,514
88988,510,515,516
88992,506,514,513
88996,506,508,511
89000,510,505,508
89005,509,506,508
89009,502,511,509
89013,506,516,511
89016,508,518,507
89019,509,516,499
89022,507,514,503
89026,510,512,507
89030,514,511,508
89034,509,511,510
89038,513,509,514
89042,513,511,513
89047,504,516,512
89051,505,518,515
89055,501,516,513
89059,509,512,511
89063,504,512,509
89067,506,515,507
89071,505,511,510
89075,509,505,515
89079,514,507,513
89083,506,512,514
89088,511,517,512
89092,508,514,506
89096,507,507,508
89100,508,503,515
89104,508,507,513
89108,507,512,510
89112,510,512,514
89116,510,506,513
89120,505,505,510
89124,510,509,508
89128,519,512,505
89133,518,511,503
89137,512,508,510
89141,510,507,508
89145,506,510,507
89149,507,512,506
89153,515,514,505
89157,507,506,503
89161,506,505,509
89165,512,508,509
89169,508,512,507
89174,503,511,508
89177,508,509,509
89180,509,510,509
89183,500,516,506
89186,506,515,516
89190,507,507,510
89194,506,506,508
89198,503,511,512
89202,502,513,511
89206,505,513,513
89210,511,508,507
89214,510,508,502
89219,515,512,504
89223,513,516,504
89227,512,519,499
89231,505,518,500
89235,499,516,504
89239,505,514,503
89243,501,513,513
89247,515,513,510
89251,515,510,510
89255,512,506,510
89260,508,510,505
89264,505,517,507
89268,512,515,509
89272,512,509,509
89276,505,506,510
89280,504,508,509
89284,507,514,515
89288,510,512,507
89292,512,509,505
89296,507,510,507
89300,510,512,505
89305,519,517,505
89309,521,514,508
89313,505,505,506
89317,502,505,502
89321,507,510,514
89325,510,509,511
89329,507,509,505
89333,507,507,505
89337,507,509,511
89340,505,512,511
89344,506,510,510
89347,509,510,508
89351,503,512,505
89355,504,511,509
89359,520,512,513
89363,508,513,509
89367,510,506,513
89371,511,509,514
89375,502,510,511
89379,506,511,506
89383,504,516,510
89388,501,513,506
89392,509,511,505
89396,504,511,508
89400,507,514,512
89404,508,515,511
89408,507,510,509
89412,508,509,508
89416,510,515,509
89420,515,516,509
89424,508,511,504
89428,508,517,509
89433,506,518,517
89437,505,513,511
89441,515,511,510
89445,513,507,512
89449,507,504,516
89453,499,509,516
89457,508,517,511
89461,504,514,518
89465,504,505,513
89469,504,501,519
89474,503,503,519
89478,504,505,512
89482,504,503,516
89486,518,500,513
89490,520,502,511
89494,507,506,509
89498,502,511,506
89501,504,510,509
89504,506,507,513
89507,509,506,507
89511,511,512,509
89516,509,518,503
89520,501,513,510
89524,507,506,509
89528,505,507,506
89532,502,511,507
89536,504,514,510
89540,509,508,508
89544,513,505,504
89548,509,510,507
89552,512,510,509
89556,504,512,507
89561,504,510,505
89565,507,508,504
89569,509,507,503
89573,507,511,506
89577,508,513,507
89581,504,511,504
89585,507,509,507
89589,505,511,508
89593,503,514,510
89597,508,513,509
89602,518,511,510
89606,511,509,509
89610,503,508,511
89614,502,508,507
89618,498,514,507
89622,502,509,509
89626,509,502,510
89630,503,510,508
89634,501,516,512
89638,509,510,517
89643,513,504,514
89647,511,503,510
89651,505,507,508
89655,502,513,508
89659,500,511,504
89663,503,505,504
89666,510,506,507
89669,512,511,509
89672,517,515,509
89676,513,514,508
89680,508,507,510
89684,501,505,510
89689,505,508,509
89693,505,510,506
89697,506,508,506
89701,507,509,509
89705,508,508,507
89709,511,507,507
89713,512,507,507
89717,507,505,506
89721,497,506,505
89725,507,506,502
89730,516,510,509
89734,517,511,509
89738,514,507,506
89742,500,504,507
89746,506,506,505
89750,505,512,502
